patient_id,fs,window_sec,signal_length,n_windows,start_indices
001,200,30,17220000,2870,"[0, 6000, 12000, 18000, 24000, 30000, 36000, 42000, 48000, 54000, 60000, 66000, 72000, 78000, 84000, 90000, 96000, 102000, 108000, 114000, 120000, 126000, 132000, 138000, 144000, 150000, 156000, 162000, 168000, 174000, 180000, 186000, 192000, 198000, 204000, 210000, 216000, 222000, 228000, 234000, 240000, 246000, 252000, 258000, 264000, 270000, 276000, 282000, 288000, 294000, 300000, 306000, 312000, 318000, 324000, 330000, 336000, 342000, 348000, 354000, 360000, 366000, 372000, 378000, 384000, 390000, 396000, 402000, 408000, 414000, 420000, 426000, 432000, 438000, 444000, 450000, 456000, 462000, 468000, 474000, 480000, 486000, 492000, 498000, 504000, 510000, 516000, 522000, 528000, 534000, 540000, 546000, 552000, 558000, 564000, 570000, 576000, 582000, 588000, 594000, 600000, 606000, 612000, 618000, 624000, 630000, 636000, 642000, 648000, 654000, 660000, 666000, 672000, 678000, 684000, 690000, 696000, 702000, 708000, 714000, 720000, 726000, 732000, 738000, 744000, 750000, 756000, 762000, 768000, 774000, 780000, 786000, 792000, 798000, 804000, 810000, 816000, 822000, 828000, 834000, 840000, 846000, 852000, 858000, 864000, 870000, 876000, 882000, 888000, 894000, 900000, 906000, 912000, 918000, 924000, 930000, 936000, 942000, 948000, 954000, 960000, 966000, 972000, 978000, 984000, 990000, 996000, 1002000, 1008000, 1014000, 1020000, 1026000, 1032000, 1038000, 1044000, 1050000, 1056000, 1062000, 1068000, 1074000, 1080000, 1086000, 1092000, 1098000, 1104000, 1110000, 1116000, 1122000, 1128000, 1134000, 1140000, 1146000, 1152000, 1158000, 1164000, 1170000, 1176000, 1182000, 1188000, 1194000, 1200000, 1206000, 1212000, 1218000, 1224000, 1230000, 1236000, 1242000, 1248000, 1254000, 1260000, 1266000, 1272000, 1278000, 1284000, 1290000, 1296000, 1302000, 1308000, 1314000, 1320000, 1326000, 1332000, 1338000, 1344000, 1350000, 1356000, 1362000, 1368000, 1374000, 1380000, 1386000, 1392000, 1398000, 1404000, 1410000, 1416000, 1422000, 1428000, 1434000, 1440000, 1446000, 1452000, 1458000, 1464000, 1470000, 1476000, 1482000, 1488000, 1494000, 1500000, 1506000, 1512000, 1518000, 1524000, 1530000, 1536000, 1542000, 1548000, 1554000, 1560000, 1566000, 1572000, 1578000, 1584000, 1590000, 1596000, 1602000, 1608000, 1614000, 1620000, 1626000, 1632000, 1638000, 1644000, 1650000, 1656000, 1662000, 1668000, 1674000, 1680000, 1686000, 1692000, 1698000, 1704000, 1710000, 1716000, 1722000, 1728000, 1734000, 1740000, 1746000, 1752000, 1758000, 1764000, 1770000, 1776000, 1782000, 1788000, 1794000, 1800000, 1806000, 1812000, 1818000, 1824000, 1830000, 1836000, 1842000, 1848000, 1854000, 1860000, 1866000, 1872000, 1878000, 1884000, 1890000, 1896000, 1902000, 1908000, 1914000, 1920000, 1926000, 1932000, 1938000, 1944000, 1950000, 1956000, 1962000, 1968000, 1974000, 1980000, 1986000, 1992000, 1998000, 2004000, 2010000, 2016000, 2022000, 2028000, 2034000, 2040000, 2046000, 2052000, 2058000, 2064000, 2070000, 2076000, 2082000, 2088000, 2094000, 2100000, 2106000, 2112000, 2118000, 2124000, 2130000, 2136000, 2142000, 2148000, 2154000, 2160000, 2166000, 2172000, 2178000, 2184000, 2190000, 2196000, 2202000, 2208000, 2214000, 2220000, 2226000, 2232000, 2238000, 2244000, 2250000, 2256000, 2262000, 2268000, 2274000, 2280000, 2286000, 2292000, 2298000, 2304000, 2310000, 2316000, 2322000, 2328000, 2334000, 2340000, 2346000, 2352000, 2358000, 2364000, 2370000, 2376000, 2382000, 2388000, 2394000, 2400000, 2406000, 2412000, 2418000, 2424000, 2430000, 2436000, 2442000, 2448000, 2454000, 2460000, 2466000, 2472000, 2478000, 2484000, 2490000, 2496000, 2502000, 2508000, 2514000, 2520000, 2526000, 2532000, 2538000, 2544000, 2550000, 2556000, 2562000, 2568000, 2574000, 2580000, 2586000, 2592000, 2598000, 2604000, 2610000, 2616000, 2622000, 2628000, 2634000, 2640000, 2646000, 2652000, 2658000, 2664000, 2670000, 2676000, 2682000, 2688000, 2694000, 2700000, 2706000, 2712000, 2718000, 2724000, 2730000, 2736000, 2742000, 2748000, 2754000, 2760000, 2766000, 2772000, 2778000, 2784000, 2790000, 2796000, 2802000, 2808000, 2814000, 2820000, 2826000, 2832000, 2838000, 2844000, 2850000, 2856000, 2862000, 2868000, 2874000, 2880000, 2886000, 2892000, 2898000, 2904000, 2910000, 2916000, 2922000, 2928000, 2934000, 2940000, 2946000, 2952000, 2958000, 2964000, 2970000, 2976000, 2982000, 2988000, 2994000, 3000000, 3006000, 3012000, 3018000, 3024000, 3030000, 3036000, 3042000, 3048000, 3054000, 3060000, 3066000, 3072000, 3078000, 3084000, 3090000, 3096000, 3102000, 3108000, 3114000, 3120000, 3126000, 3132000, 3138000, 3144000, 3150000, 3156000, 3162000, 3168000, 3174000, 3180000, 3186000, 3192000, 3198000, 3204000, 3210000, 3216000, 3222000, 3228000, 3234000, 3240000, 3246000, 3252000, 3258000, 3264000, 3270000, 3276000, 3282000, 3288000, 3294000, 3300000, 3306000, 3312000, 3318000, 3324000, 3330000, 3336000, 3342000, 3348000, 3354000, 3360000, 3366000, 3372000, 3378000, 3384000, 3390000, 3396000, 3402000, 3408000, 3414000, 3420000, 3426000, 3432000, 3438000, 3444000, 3450000, 3456000, 3462000, 3468000, 3474000, 3480000, 3486000, 3492000, 3498000, 3504000, 3510000, 3516000, 3522000, 3528000, 3534000, 3540000, 3546000, 3552000, 3558000, 3564000, 3570000, 3576000, 3582000, 3588000, 3594000, 3600000, 3606000, 3612000, 3618000, 3624000, 3630000, 3636000, 3642000, 3648000, 3654000, 3660000, 3666000, 3672000, 3678000, 3684000, 3690000, 3696000, 3702000, 3708000, 3714000, 3720000, 3726000, 3732000, 3738000, 3744000, 3750000, 3756000, 3762000, 3768000, 3774000, 3780000, 3786000, 3792000, 3798000, 3804000, 3810000, 3816000, 3822000, 3828000, 3834000, 3840000, 3846000, 3852000, 3858000, 3864000, 3870000, 3876000, 3882000, 3888000, 3894000, 3900000, 3906000, 3912000, 3918000, 3924000, 3930000, 3936000, 3942000, 3948000, 3954000, 3960000, 3966000, 3972000, 3978000, 3984000, 3990000, 3996000, 4002000, 4008000, 4014000, 4020000, 4026000, 4032000, 4038000, 4044000, 4050000, 4056000, 4062000, 4068000, 4074000, 4080000, 4086000, 4092000, 4098000, 4104000, 4110000, 4116000, 4122000, 4128000, 4134000, 4140000, 4146000, 4152000, 4158000, 4164000, 4170000, 4176000, 4182000, 4188000, 4194000, 4200000, 4206000, 4212000, 4218000, 4224000, 4230000, 4236000, 4242000, 4248000, 4254000, 4260000, 4266000, 4272000, 4278000, 4284000, 4290000, 4296000, 4302000, 4308000, 4314000, 4320000, 4326000, 4332000, 4338000, 4344000, 4350000, 4356000, 4362000, 4368000, 4374000, 4380000, 4386000, 4392000, 4398000, 4404000, 4410000, 4416000, 4422000, 4428000, 4434000, 4440000, 4446000, 4452000, 4458000, 4464000, 4470000, 4476000, 4482000, 4488000, 4494000, 4500000, 4506000, 4512000, 4518000, 4524000, 4530000, 4536000, 4542000, 4548000, 4554000, 4560000, 4566000, 4572000, 4578000, 4584000, 4590000, 4596000, 4602000, 4608000, 4614000, 4620000, 4626000, 4632000, 4638000, 4644000, 4650000, 4656000, 4662000, 4668000, 4674000, 4680000, 4686000, 4692000, 4698000, 4704000, 4710000, 4716000, 4722000, 4728000, 4734000, 4740000, 4746000, 4752000, 4758000, 4764000, 4770000, 4776000, 4782000, 4788000, 4794000, 4800000, 4806000, 4812000, 4818000, 4824000, 4830000, 4836000, 4842000, 4848000, 4854000, 4860000, 4866000, 4872000, 4878000, 4884000, 4890000, 4896000, 4902000, 4908000, 4914000, 4920000, 4926000, 4932000, 4938000, 4944000, 4950000, 4956000, 4962000, 4968000, 4974000, 4980000, 4986000, 4992000, 4998000, 5004000, 5010000, 5016000, 5022000, 5028000, 5034000, 5040000, 5046000, 5052000, 5058000, 5064000, 5070000, 5076000, 5082000, 5088000, 5094000, 5100000, 5106000, 5112000, 5118000, 5124000, 5130000, 5136000, 5142000, 5148000, 5154000, 5160000, 5166000, 5172000, 5178000, 5184000, 5190000, 5196000, 5202000, 5208000, 5214000, 5220000, 5226000, 5232000, 5238000, 5244000, 5250000, 5256000, 5262000, 5268000, 5274000, 5280000, 5286000, 5292000, 5298000, 5304000, 5310000, 5316000, 5322000, 5328000, 5334000, 5340000, 5346000, 5352000, 5358000, 5364000, 5370000, 5376000, 5382000, 5388000, 5394000, 5400000, 5406000, 5412000, 5418000, 5424000, 5430000, 5436000, 5442000, 5448000, 5454000, 5460000, 5466000, 5472000, 5478000, 5484000, 5490000, 5496000, 5502000, 5508000, 5514000, 5520000, 5526000, 5532000, 5538000, 5544000, 5550000, 5556000, 5562000, 5568000, 5574000, 5580000, 5586000, 5592000, 5598000, 5604000, 5610000, 5616000, 5622000, 5628000, 5634000, 5640000, 5646000, 5652000, 5658000, 5664000, 5670000, 5676000, 5682000, 5688000, 5694000, 5700000, 5706000, 5712000, 5718000, 5724000, 5730000, 5736000, 5742000, 5748000, 5754000, 5760000, 5766000, 5772000, 5778000, 5784000, 5790000, 5796000, 5802000, 5808000, 5814000, 5820000, 5826000, 5832000, 5838000, 5844000, 5850000, 5856000, 5862000, 5868000, 5874000, 5880000, 5886000, 5892000, 5898000, 5904000, 5910000, 5916000, 5922000, 5928000, 5934000, 5940000, 5946000, 5952000, 5958000, 5964000, 5970000, 5976000, 5982000, 5988000, 5994000, 6000000, 6006000, 6012000, 6018000, 6024000, 6030000, 6036000, 6042000, 6048000, 6054000, 6060000, 6066000, 6072000, 6078000, 6084000, 6090000, 6096000, 6102000, 6108000, 6114000, 6120000, 6126000, 6132000, 6138000, 6144000, 6150000, 6156000, 6162000, 6168000, 6174000, 6180000, 6186000, 6192000, 6198000, 6204000, 6210000, 6216000, 6222000, 6228000, 6234000, 6240000, 6246000, 6252000, 6258000, 6264000, 6270000, 6276000, 6282000, 6288000, 6294000, 6300000, 6306000, 6312000, 6318000, 6324000, 6330000, 6336000, 6342000, 6348000, 6354000, 6360000, 6366000, 6372000, 6378000, 6384000, 6390000, 6396000, 6402000, 6408000, 6414000, 6420000, 6426000, 6432000, 6438000, 6444000, 6450000, 6456000, 6462000, 6468000, 6474000, 6480000, 6486000, 6492000, 6498000, 6504000, 6510000, 6516000, 6522000, 6528000, 6534000, 6540000, 6546000, 6552000, 6558000, 6564000, 6570000, 6576000, 6582000, 6588000, 6594000, 6600000, 6606000, 6612000, 6618000, 6624000, 6630000, 6636000, 6642000, 6648000, 6654000, 6660000, 6666000, 6672000, 6678000, 6684000, 6690000, 6696000, 6702000, 6708000, 6714000, 6720000, 6726000, 6732000, 6738000, 6744000, 6750000, 6756000, 6762000, 6768000, 6774000, 6780000, 6786000, 6792000, 6798000, 6804000, 6810000, 6816000, 6822000, 6828000, 6834000, 6840000, 6846000, 6852000, 6858000, 6864000, 6870000, 6876000, 6882000, 6888000, 6894000, 6900000, 6906000, 6912000, 6918000, 6924000, 6930000, 6936000, 6942000, 6948000, 6954000, 6960000, 6966000, 6972000, 6978000, 6984000, 6990000, 6996000, 7002000, 7008000, 7014000, 7020000, 7026000, 7032000, 7038000, 7044000, 7050000, 7056000, 7062000, 7068000, 7074000, 7080000, 7086000, 7092000, 7098000, 7104000, 7110000, 7116000, 7122000, 7128000, 7134000, 7140000, 7146000, 7152000, 7158000, 7164000, 7170000, 7176000, 7182000, 7188000, 7194000, 7200000, 7206000, 7212000, 7218000, 7224000, 7230000, 7236000, 7242000, 7248000, 7254000, 7260000, 7266000, 7272000, 7278000, 7284000, 7290000, 7296000, 7302000, 7308000, 7314000, 7320000, 7326000, 7332000, 7338000, 7344000, 7350000, 7356000, 7362000, 7368000, 7374000, 7380000, 7386000, 7392000, 7398000, 7404000, 7410000, 7416000, 7422000, 7428000, 7434000, 7440000, 7446000, 7452000, 7458000, 7464000, 7470000, 7476000, 7482000, 7488000, 7494000, 7500000, 7506000, 7512000, 7518000, 7524000, 7530000, 7536000, 7542000, 7548000, 7554000, 7560000, 7566000, 7572000, 7578000, 7584000, 7590000, 7596000, 7602000, 7608000, 7614000, 7620000, 7626000, 7632000, 7638000, 7644000, 7650000, 7656000, 7662000, 7668000, 7674000, 7680000, 7686000, 7692000, 7698000, 7704000, 7710000, 7716000, 7722000, 7728000, 7734000, 7740000, 7746000, 7752000, 7758000, 7764000, 7770000, 7776000, 7782000, 7788000, 7794000, 7800000, 7806000, 7812000, 7818000, 7824000, 7830000, 7836000, 7842000, 7848000, 7854000, 7860000, 7866000, 7872000, 7878000, 7884000, 7890000, 7896000, 7902000, 7908000, 7914000, 7920000, 7926000, 7932000, 7938000, 7944000, 7950000, 7956000, 7962000, 7968000, 7974000, 7980000, 7986000, 7992000, 7998000, 8004000, 8010000, 8016000, 8022000, 8028000, 8034000, 8040000, 8046000, 8052000, 8058000, 8064000, 8070000, 8076000, 8082000, 8088000, 8094000, 8100000, 8106000, 8112000, 8118000, 8124000, 8130000, 8136000, 8142000, 8148000, 8154000, 8160000, 8166000, 8172000, 8178000, 8184000, 8190000, 8196000, 8202000, 8208000, 8214000, 8220000, 8226000, 8232000, 8238000, 8244000, 8250000, 8256000, 8262000, 8268000, 8274000, 8280000, 8286000, 8292000, 8298000, 8304000, 8310000, 8316000, 8322000, 8328000, 8334000, 8340000, 8346000, 8352000, 8358000, 8364000, 8370000, 8376000, 8382000, 8388000, 8394000, 8400000, 8406000, 8412000, 8418000, 8424000, 8430000, 8436000, 8442000, 8448000, 8454000, 8460000, 8466000, 8472000, 8478000, 8484000, 8490000, 8496000, 8502000, 8508000, 8514000, 8520000, 8526000, 8532000, 8538000, 8544000, 8550000, 8556000, 8562000, 8568000, 8574000, 8580000, 8586000, 8592000, 8598000, 8604000, 8610000, 8616000, 8622000, 8628000, 8634000, 8640000, 8646000, 8652000, 8658000, 8664000, 8670000, 8676000, 8682000, 8688000, 8694000, 8700000, 8706000, 8712000, 8718000, 8724000, 8730000, 8736000, 8742000, 8748000, 8754000, 8760000, 8766000, 8772000, 8778000, 8784000, 8790000, 8796000, 8802000, 8808000, 8814000, 8820000, 8826000, 8832000, 8838000, 8844000, 8850000, 8856000, 8862000, 8868000, 8874000, 8880000, 8886000, 8892000, 8898000, 8904000, 8910000, 8916000, 8922000, 8928000, 8934000, 8940000, 8946000, 8952000, 8958000, 8964000, 8970000, 8976000, 8982000, 8988000, 8994000, 9000000, 9006000, 9012000, 9018000, 9024000, 9030000, 9036000, 9042000, 9048000, 9054000, 9060000, 9066000, 9072000, 9078000, 9084000, 9090000, 9096000, 9102000, 9108000, 9114000, 9120000, 9126000, 9132000, 9138000, 9144000, 9150000, 9156000, 9162000, 9168000, 9174000, 9180000, 9186000, 9192000, 9198000, 9204000, 9210000, 9216000, 9222000, 9228000, 9234000, 9240000, 9246000, 9252000, 9258000, 9264000, 9270000, 9276000, 9282000, 9288000, 9294000, 9300000, 9306000, 9312000, 9318000, 9324000, 9330000, 9336000, 9342000, 9348000, 9354000, 9360000, 9366000, 9372000, 9378000, 9384000, 9390000, 9396000, 9402000, 9408000, 9414000, 9420000, 9426000, 9432000, 9438000, 9444000, 9450000, 9456000, 9462000, 9468000, 9474000, 9480000, 9486000, 9492000, 9498000, 9504000, 9510000, 9516000, 9522000, 9528000, 9534000, 9540000, 9546000, 9552000, 9558000, 9564000, 9570000, 9576000, 9582000, 9588000, 9594000, 9600000, 9606000, 9612000, 9618000, 9624000, 9630000, 9636000, 9642000, 9648000, 9654000, 9660000, 9666000, 9672000, 9678000, 9684000, 9690000, 9696000, 9702000, 9708000, 9714000, 9720000, 9726000, 9732000, 9738000, 9744000, 9750000, 9756000, 9762000, 9768000, 9774000, 9780000, 9786000, 9792000, 9798000, 9804000, 9810000, 9816000, 9822000, 9828000, 9834000, 9840000, 9846000, 9852000, 9858000, 9864000, 9870000, 9876000, 9882000, 9888000, 9894000, 9900000, 9906000, 9912000, 9918000, 9924000, 9930000, 9936000, 9942000, 9948000, 9954000, 9960000, 9966000, 9972000, 9978000, 9984000, 9990000, 9996000, 10002000, 10008000, 10014000, 10020000, 10026000, 10032000, 10038000, 10044000, 10050000, 10056000, 10062000, 10068000, 10074000, 10080000, 10086000, 10092000, 10098000, 10104000, 10110000, 10116000, 10122000, 10128000, 10134000, 10140000, 10146000, 10152000, 10158000, 10164000, 10170000, 10176000, 10182000, 10188000, 10194000, 10200000, 10206000, 10212000, 10218000, 10224000, 10230000, 10236000, 10242000, 10248000, 10254000, 10260000, 10266000, 10272000, 10278000, 10284000, 10290000, 10296000, 10302000, 10308000, 10314000, 10320000, 10326000, 10332000, 10338000, 10344000, 10350000, 10356000, 10362000, 10368000, 10374000, 10380000, 10386000, 10392000, 10398000, 10404000, 10410000, 10416000, 10422000, 10428000, 10434000, 10440000, 10446000, 10452000, 10458000, 10464000, 10470000, 10476000, 10482000, 10488000, 10494000, 10500000, 10506000, 10512000, 10518000, 10524000, 10530000, 10536000, 10542000, 10548000, 10554000, 10560000, 10566000, 10572000, 10578000, 10584000, 10590000, 10596000, 10602000, 10608000, 10614000, 10620000, 10626000, 10632000, 10638000, 10644000, 10650000, 10656000, 10662000, 10668000, 10674000, 10680000, 10686000, 10692000, 10698000, 10704000, 10710000, 10716000, 10722000, 10728000, 10734000, 10740000, 10746000, 10752000, 10758000, 10764000, 10770000, 10776000, 10782000, 10788000, 10794000, 10800000, 10806000, 10812000, 10818000, 10824000, 10830000, 10836000, 10842000, 10848000, 10854000, 10860000, 10866000, 10872000, 10878000, 10884000, 10890000, 10896000, 10902000, 10908000, 10914000, 10920000, 10926000, 10932000, 10938000, 10944000, 10950000, 10956000, 10962000, 10968000, 10974000, 10980000, 10986000, 10992000, 10998000, 11004000, 11010000, 11016000, 11022000, 11028000, 11034000, 11040000, 11046000, 11052000, 11058000, 11064000, 11070000, 11076000, 11082000, 11088000, 11094000, 11100000, 11106000, 11112000, 11118000, 11124000, 11130000, 11136000, 11142000, 11148000, 11154000, 11160000, 11166000, 11172000, 11178000, 11184000, 11190000, 11196000, 11202000, 11208000, 11214000, 11220000, 11226000, 11232000, 11238000, 11244000, 11250000, 11256000, 11262000, 11268000, 11274000, 11280000, 11286000, 11292000, 11298000, 11304000, 11310000, 11316000, 11322000, 11328000, 11334000, 11340000, 11346000, 11352000, 11358000, 11364000, 11370000, 11376000, 11382000, 11388000, 11394000, 11400000, 11406000, 11412000, 11418000, 11424000, 11430000, 11436000, 11442000, 11448000, 11454000, 11460000, 11466000, 11472000, 11478000, 11484000, 11490000, 11496000, 11502000, 11508000, 11514000, 11520000, 11526000, 11532000, 11538000, 11544000, 11550000, 11556000, 11562000, 11568000, 11574000, 11580000, 11586000, 11592000, 11598000, 11604000, 11610000, 11616000, 11622000, 11628000, 11634000, 11640000, 11646000, 11652000, 11658000, 11664000, 11670000, 11676000, 11682000, 11688000, 11694000, 11700000, 11706000, 11712000, 11718000, 11724000, 11730000, 11736000, 11742000, 11748000, 11754000, 11760000, 11766000, 11772000, 11778000, 11784000, 11790000, 11796000, 11802000, 11808000, 11814000, 11820000, 11826000, 11832000, 11838000, 11844000, 11850000, 11856000, 11862000, 11868000, 11874000, 11880000, 11886000, 11892000, 11898000, 11904000, 11910000, 11916000, 11922000, 11928000, 11934000, 11940000, 11946000, 11952000, 11958000, 11964000, 11970000, 11976000, 11982000, 11988000, 11994000, 12000000, 12006000, 12012000, 12018000, 12024000, 12030000, 12036000, 12042000, 12048000, 12054000, 12060000, 12066000, 12072000, 12078000, 12084000, 12090000, 12096000, 12102000, 12108000, 12114000, 12120000, 12126000, 12132000, 12138000, 12144000, 12150000, 12156000, 12162000, 12168000, 12174000, 12180000, 12186000, 12192000, 12198000, 12204000, 12210000, 12216000, 12222000, 12228000, 12234000, 12240000, 12246000, 12252000, 12258000, 12264000, 12270000, 12276000, 12282000, 12288000, 12294000, 12300000, 12306000, 12312000, 12318000, 12324000, 12330000, 12336000, 12342000, 12348000, 12354000, 12360000, 12366000, 12372000, 12378000, 12384000, 12390000, 12396000, 12402000, 12408000, 12414000, 12420000, 12426000, 12432000, 12438000, 12444000, 12450000, 12456000, 12462000, 12468000, 12474000, 12480000, 12486000, 12492000, 12498000, 12504000, 12510000, 12516000, 12522000, 12528000, 12534000, 12540000, 12546000, 12552000, 12558000, 12564000, 12570000, 12576000, 12582000, 12588000, 12594000, 12600000, 12606000, 12612000, 12618000, 12624000, 12630000, 12636000, 12642000, 12648000, 12654000, 12660000, 12666000, 12672000, 12678000, 12684000, 12690000, 12696000, 12702000, 12708000, 12714000, 12720000, 12726000, 12732000, 12738000, 12744000, 12750000, 12756000, 12762000, 12768000, 12774000, 12780000, 12786000, 12792000, 12798000, 12804000, 12810000, 12816000, 12822000, 12828000, 12834000, 12840000, 12846000, 12852000, 12858000, 12864000, 12870000, 12876000, 12882000, 12888000, 12894000, 12900000, 12906000, 12912000, 12918000, 12924000, 12930000, 12936000, 12942000, 12948000, 12954000, 12960000, 12966000, 12972000, 12978000, 12984000, 12990000, 12996000, 13002000, 13008000, 13014000, 13020000, 13026000, 13032000, 13038000, 13044000, 13050000, 13056000, 13062000, 13068000, 13074000, 13080000, 13086000, 13092000, 13098000, 13104000, 13110000, 13116000, 13122000, 13128000, 13134000, 13140000, 13146000, 13152000, 13158000, 13164000, 13170000, 13176000, 13182000, 13188000, 13194000, 13200000, 13206000, 13212000, 13218000, 13224000, 13230000, 13236000, 13242000, 13248000, 13254000, 13260000, 13266000, 13272000, 13278000, 13284000, 13290000, 13296000, 13302000, 13308000, 13314000, 13320000, 13326000, 13332000, 13338000, 13344000, 13350000, 13356000, 13362000, 13368000, 13374000, 13380000, 13386000, 13392000, 13398000, 13404000, 13410000, 13416000, 13422000, 13428000, 13434000, 13440000, 13446000, 13452000, 13458000, 13464000, 13470000, 13476000, 13482000, 13488000, 13494000, 13500000, 13506000, 13512000, 13518000, 13524000, 13530000, 13536000, 13542000, 13548000, 13554000, 13560000, 13566000, 13572000, 13578000, 13584000, 13590000, 13596000, 13602000, 13608000, 13614000, 13620000, 13626000, 13632000, 13638000, 13644000, 13650000, 13656000, 13662000, 13668000, 13674000, 13680000, 13686000, 13692000, 13698000, 13704000, 13710000, 13716000, 13722000, 13728000, 13734000, 13740000, 13746000, 13752000, 13758000, 13764000, 13770000, 13776000, 13782000, 13788000, 13794000, 13800000, 13806000, 13812000, 13818000, 13824000, 13830000, 13836000, 13842000, 13848000, 13854000, 13860000, 13866000, 13872000, 13878000, 13884000, 13890000, 13896000, 13902000, 13908000, 13914000, 13920000, 13926000, 13932000, 13938000, 13944000, 13950000, 13956000, 13962000, 13968000, 13974000, 13980000, 13986000, 13992000, 13998000, 14004000, 14010000, 14016000, 14022000, 14028000, 14034000, 14040000, 14046000, 14052000, 14058000, 14064000, 14070000, 14076000, 14082000, 14088000, 14094000, 14100000, 14106000, 14112000, 14118000, 14124000, 14130000, 14136000, 14142000, 14148000, 14154000, 14160000, 14166000, 14172000, 14178000, 14184000, 14190000, 14196000, 14202000, 14208000, 14214000, 14220000, 14226000, 14232000, 14238000, 14244000, 14250000, 14256000, 14262000, 14268000, 14274000, 14280000, 14286000, 14292000, 14298000, 14304000, 14310000, 14316000, 14322000, 14328000, 14334000, 14340000, 14346000, 14352000, 14358000, 14364000, 14370000, 14376000, 14382000, 14388000, 14394000, 14400000, 14406000, 14412000, 14418000, 14424000, 14430000, 14436000, 14442000, 14448000, 14454000, 14460000, 14466000, 14472000, 14478000, 14484000, 14490000, 14496000, 14502000, 14508000, 14514000, 14520000, 14526000, 14532000, 14538000, 14544000, 14550000, 14556000, 14562000, 14568000, 14574000, 14580000, 14586000, 14592000, 14598000, 14604000, 14610000, 14616000, 14622000, 14628000, 14634000, 14640000, 14646000, 14652000, 14658000, 14664000, 14670000, 14676000, 14682000, 14688000, 14694000, 14700000, 14706000, 14712000, 14718000, 14724000, 14730000, 14736000, 14742000, 14748000, 14754000, 14760000, 14766000, 14772000, 14778000, 14784000, 14790000, 14796000, 14802000, 14808000, 14814000, 14820000, 14826000, 14832000, 14838000, 14844000, 14850000, 14856000, 14862000, 14868000, 14874000, 14880000, 14886000, 14892000, 14898000, 14904000, 14910000, 14916000, 14922000, 14928000, 14934000, 14940000, 14946000, 14952000, 14958000, 14964000, 14970000, 14976000, 14982000, 14988000, 14994000, 15000000, 15006000, 15012000, 15018000, 15024000, 15030000, 15036000, 15042000, 15048000, 15054000, 15060000, 15066000, 15072000, 15078000, 15084000, 15090000, 15096000, 15102000, 15108000, 15114000, 15120000, 15126000, 15132000, 15138000, 15144000, 15150000, 15156000, 15162000, 15168000, 15174000, 15180000, 15186000, 15192000, 15198000, 15204000, 15210000, 15216000, 15222000, 15228000, 15234000, 15240000, 15246000, 15252000, 15258000, 15264000, 15270000, 15276000, 15282000, 15288000, 15294000, 15300000, 15306000, 15312000, 15318000, 15324000, 15330000, 15336000, 15342000, 15348000, 15354000, 15360000, 15366000, 15372000, 15378000, 15384000, 15390000, 15396000, 15402000, 15408000, 15414000, 15420000, 15426000, 15432000, 15438000, 15444000, 15450000, 15456000, 15462000, 15468000, 15474000, 15480000, 15486000, 15492000, 15498000, 15504000, 15510000, 15516000, 15522000, 15528000, 15534000, 15540000, 15546000, 15552000, 15558000, 15564000, 15570000, 15576000, 15582000, 15588000, 15594000, 15600000, 15606000, 15612000, 15618000, 15624000, 15630000, 15636000, 15642000, 15648000, 15654000, 15660000, 15666000, 15672000, 15678000, 15684000, 15690000, 15696000, 15702000, 15708000, 15714000, 15720000, 15726000, 15732000, 15738000, 15744000, 15750000, 15756000, 15762000, 15768000, 15774000, 15780000, 15786000, 15792000, 15798000, 15804000, 15810000, 15816000, 15822000, 15828000, 15834000, 15840000, 15846000, 15852000, 15858000, 15864000, 15870000, 15876000, 15882000, 15888000, 15894000, 15900000, 15906000, 15912000, 15918000, 15924000, 15930000, 15936000, 15942000, 15948000, 15954000, 15960000, 15966000, 15972000, 15978000, 15984000, 15990000, 15996000, 16002000, 16008000, 16014000, 16020000, 16026000, 16032000, 16038000, 16044000, 16050000, 16056000, 16062000, 16068000, 16074000, 16080000, 16086000, 16092000, 16098000, 16104000, 16110000, 16116000, 16122000, 16128000, 16134000, 16140000, 16146000, 16152000, 16158000, 16164000, 16170000, 16176000, 16182000, 16188000, 16194000, 16200000, 16206000, 16212000, 16218000, 16224000, 16230000, 16236000, 16242000, 16248000, 16254000, 16260000, 16266000, 16272000, 16278000, 16284000, 16290000, 16296000, 16302000, 16308000, 16314000, 16320000, 16326000, 16332000, 16338000, 16344000, 16350000, 16356000, 16362000, 16368000, 16374000, 16380000, 16386000, 16392000, 16398000, 16404000, 16410000, 16416000, 16422000, 16428000, 16434000, 16440000, 16446000, 16452000, 16458000, 16464000, 16470000, 16476000, 16482000, 16488000, 16494000, 16500000, 16506000, 16512000, 16518000, 16524000, 16530000, 16536000, 16542000, 16548000, 16554000, 16560000, 16566000, 16572000, 16578000, 16584000, 16590000, 16596000, 16602000, 16608000, 16614000, 16620000, 16626000, 16632000, 16638000, 16644000, 16650000, 16656000, 16662000, 16668000, 16674000, 16680000, 16686000, 16692000, 16698000, 16704000, 16710000, 16716000, 16722000, 16728000, 16734000, 16740000, 16746000, 16752000, 16758000, 16764000, 16770000, 16776000, 16782000, 16788000, 16794000, 16800000, 16806000, 16812000, 16818000, 16824000, 16830000, 16836000, 16842000, 16848000, 16854000, 16860000, 16866000, 16872000, 16878000, 16884000, 16890000, 16896000, 16902000, 16908000, 16914000, 16920000, 16926000, 16932000, 16938000, 16944000, 16950000, 16956000, 16962000, 16968000, 16974000, 16980000, 16986000, 16992000, 16998000, 17004000, 17010000, 17016000, 17022000, 17028000, 17034000, 17040000, 17046000, 17052000, 17058000, 17064000, 17070000, 17076000, 17082000, 17088000, 17094000, 17100000, 17106000, 17112000, 17118000, 17124000, 17130000, 17136000, 17142000, 17148000, 17154000, 17160000, 17166000, 17172000, 17178000, 17184000, 17190000, 17196000, 17202000, 17208000, 17214000]"
002,200,30,17280000,2880,"[0, 6000, 12000, 18000, 24000, 30000, 36000, 42000, 48000, 54000, 60000, 66000, 72000, 78000, 84000, 90000, 96000, 102000, 108000, 114000, 120000, 126000, 132000, 138000, 144000, 150000, 156000, 162000, 168000, 174000, 180000, 186000, 192000, 198000, 204000, 210000, 216000, 222000, 228000, 234000, 240000, 246000, 252000, 258000, 264000, 270000, 276000, 282000, 288000, 294000, 300000, 306000, 312000, 318000, 324000, 330000, 336000, 342000, 348000, 354000, 360000, 366000, 372000, 378000, 384000, 390000, 396000, 402000, 408000, 414000, 420000, 426000, 432000, 438000, 444000, 450000, 456000, 462000, 468000, 474000, 480000, 486000, 492000, 498000, 504000, 510000, 516000, 522000, 528000, 534000, 540000, 546000, 552000, 558000, 564000, 570000, 576000, 582000, 588000, 594000, 600000, 606000, 612000, 618000, 624000, 630000, 636000, 642000, 648000, 654000, 660000, 666000, 672000, 678000, 684000, 690000, 696000, 702000, 708000, 714000, 720000, 726000, 732000, 738000, 744000, 750000, 756000, 762000, 768000, 774000, 780000, 786000, 792000, 798000, 804000, 810000, 816000, 822000, 828000, 834000, 840000, 846000, 852000, 858000, 864000, 870000, 876000, 882000, 888000, 894000, 900000, 906000, 912000, 918000, 924000, 930000, 936000, 942000, 948000, 954000, 960000, 966000, 972000, 978000, 984000, 990000, 996000, 1002000, 1008000, 1014000, 1020000, 1026000, 1032000, 1038000, 1044000, 1050000, 1056000, 1062000, 1068000, 1074000, 1080000, 1086000, 1092000, 1098000, 1104000, 1110000, 1116000, 1122000, 1128000, 1134000, 1140000, 1146000, 1152000, 1158000, 1164000, 1170000, 1176000, 1182000, 1188000, 1194000, 1200000, 1206000, 1212000, 1218000, 1224000, 1230000, 1236000, 1242000, 1248000, 1254000, 1260000, 1266000, 1272000, 1278000, 1284000, 1290000, 1296000, 1302000, 1308000, 1314000, 1320000, 1326000, 1332000, 1338000, 1344000, 1350000, 1356000, 1362000, 1368000, 1374000, 1380000, 1386000, 1392000, 1398000, 1404000, 1410000, 1416000, 1422000, 1428000, 1434000, 1440000, 1446000, 1452000, 1458000, 1464000, 1470000, 1476000, 1482000, 1488000, 1494000, 1500000, 1506000, 1512000, 1518000, 1524000, 1530000, 1536000, 1542000, 1548000, 1554000, 1560000, 1566000, 1572000, 1578000, 1584000, 1590000, 1596000, 1602000, 1608000, 1614000, 1620000, 1626000, 1632000, 1638000, 1644000, 1650000, 1656000, 1662000, 1668000, 1674000, 1680000, 1686000, 1692000, 1698000, 1704000, 1710000, 1716000, 1722000, 1728000, 1734000, 1740000, 1746000, 1752000, 1758000, 1764000, 1770000, 1776000, 1782000, 1788000, 1794000, 1800000, 1806000, 1812000, 1818000, 1824000, 1830000, 1836000, 1842000, 1848000, 1854000, 1860000, 1866000, 1872000, 1878000, 1884000, 1890000, 1896000, 1902000, 1908000, 1914000, 1920000, 1926000, 1932000, 1938000, 1944000, 1950000, 1956000, 1962000, 1968000, 1974000, 1980000, 1986000, 1992000, 1998000, 2004000, 2010000, 2016000, 2022000, 2028000, 2034000, 2040000, 2046000, 2052000, 2058000, 2064000, 2070000, 2076000, 2082000, 2088000, 2094000, 2100000, 2106000, 2112000, 2118000, 2124000, 2130000, 2136000, 2142000, 2148000, 2154000, 2160000, 2166000, 2172000, 2178000, 2184000, 2190000, 2196000, 2202000, 2208000, 2214000, 2220000, 2226000, 2232000, 2238000, 2244000, 2250000, 2256000, 2262000, 2268000, 2274000, 2280000, 2286000, 2292000, 2298000, 2304000, 2310000, 2316000, 2322000, 2328000, 2334000, 2340000, 2346000, 2352000, 2358000, 2364000, 2370000, 2376000, 2382000, 2388000, 2394000, 2400000, 2406000, 2412000, 2418000, 2424000, 2430000, 2436000, 2442000, 2448000, 2454000, 2460000, 2466000, 2472000, 2478000, 2484000, 2490000, 2496000, 2502000, 2508000, 2514000, 2520000, 2526000, 2532000, 2538000, 2544000, 2550000, 2556000, 2562000, 2568000, 2574000, 2580000, 2586000, 2592000, 2598000, 2604000, 2610000, 2616000, 2622000, 2628000, 2634000, 2640000, 2646000, 2652000, 2658000, 2664000, 2670000, 2676000, 2682000, 2688000, 2694000, 2700000, 2706000, 2712000, 2718000, 2724000, 2730000, 2736000, 2742000, 2748000, 2754000, 2760000, 2766000, 2772000, 2778000, 2784000, 2790000, 2796000, 2802000, 2808000, 2814000, 2820000, 2826000, 2832000, 2838000, 2844000, 2850000, 2856000, 2862000, 2868000, 2874000, 2880000, 2886000, 2892000, 2898000, 2904000, 2910000, 2916000, 2922000, 2928000, 2934000, 2940000, 2946000, 2952000, 2958000, 2964000, 2970000, 2976000, 2982000, 2988000, 2994000, 3000000, 3006000, 3012000, 3018000, 3024000, 3030000, 3036000, 3042000, 3048000, 3054000, 3060000, 3066000, 3072000, 3078000, 3084000, 3090000, 3096000, 3102000, 3108000, 3114000, 3120000, 3126000, 3132000, 3138000, 3144000, 3150000, 3156000, 3162000, 3168000, 3174000, 3180000, 3186000, 3192000, 3198000, 3204000, 3210000, 3216000, 3222000, 3228000, 3234000, 3240000, 3246000, 3252000, 3258000, 3264000, 3270000, 3276000, 3282000, 3288000, 3294000, 3300000, 3306000, 3312000, 3318000, 3324000, 3330000, 3336000, 3342000, 3348000, 3354000, 3360000, 3366000, 3372000, 3378000, 3384000, 3390000, 3396000, 3402000, 3408000, 3414000, 3420000, 3426000, 3432000, 3438000, 3444000, 3450000, 3456000, 3462000, 3468000, 3474000, 3480000, 3486000, 3492000, 3498000, 3504000, 3510000, 3516000, 3522000, 3528000, 3534000, 3540000, 3546000, 3552000, 3558000, 3564000, 3570000, 3576000, 3582000, 3588000, 3594000, 3600000, 3606000, 3612000, 3618000, 3624000, 3630000, 3636000, 3642000, 3648000, 3654000, 3660000, 3666000, 3672000, 3678000, 3684000, 3690000, 3696000, 3702000, 3708000, 3714000, 3720000, 3726000, 3732000, 3738000, 3744000, 3750000, 3756000, 3762000, 3768000, 3774000, 3780000, 3786000, 3792000, 3798000, 3804000, 3810000, 3816000, 3822000, 3828000, 3834000, 3840000, 3846000, 3852000, 3858000, 3864000, 3870000, 3876000, 3882000, 3888000, 3894000, 3900000, 3906000, 3912000, 3918000, 3924000, 3930000, 3936000, 3942000, 3948000, 3954000, 3960000, 3966000, 3972000, 3978000, 3984000, 3990000, 3996000, 4002000, 4008000, 4014000, 4020000, 4026000, 4032000, 4038000, 4044000, 4050000, 4056000, 4062000, 4068000, 4074000, 4080000, 4086000, 4092000, 4098000, 4104000, 4110000, 4116000, 4122000, 4128000, 4134000, 4140000, 4146000, 4152000, 4158000, 4164000, 4170000, 4176000, 4182000, 4188000, 4194000, 4200000, 4206000, 4212000, 4218000, 4224000, 4230000, 4236000, 4242000, 4248000, 4254000, 4260000, 4266000, 4272000, 4278000, 4284000, 4290000, 4296000, 4302000, 4308000, 4314000, 4320000, 4326000, 4332000, 4338000, 4344000, 4350000, 4356000, 4362000, 4368000, 4374000, 4380000, 4386000, 4392000, 4398000, 4404000, 4410000, 4416000, 4422000, 4428000, 4434000, 4440000, 4446000, 4452000, 4458000, 4464000, 4470000, 4476000, 4482000, 4488000, 4494000, 4500000, 4506000, 4512000, 4518000, 4524000, 4530000, 4536000, 4542000, 4548000, 4554000, 4560000, 4566000, 4572000, 4578000, 4584000, 4590000, 4596000, 4602000, 4608000, 4614000, 4620000, 4626000, 4632000, 4638000, 4644000, 4650000, 4656000, 4662000, 4668000, 4674000, 4680000, 4686000, 4692000, 4698000, 4704000, 4710000, 4716000, 4722000, 4728000, 4734000, 4740000, 4746000, 4752000, 4758000, 4764000, 4770000, 4776000, 4782000, 4788000, 4794000, 4800000, 4806000, 4812000, 4818000, 4824000, 4830000, 4836000, 4842000, 4848000, 4854000, 4860000, 4866000, 4872000, 4878000, 4884000, 4890000, 4896000, 4902000, 4908000, 4914000, 4920000, 4926000, 4932000, 4938000, 4944000, 4950000, 4956000, 4962000, 4968000, 4974000, 4980000, 4986000, 4992000, 4998000, 5004000, 5010000, 5016000, 5022000, 5028000, 5034000, 5040000, 5046000, 5052000, 5058000, 5064000, 5070000, 5076000, 5082000, 5088000, 5094000, 5100000, 5106000, 5112000, 5118000, 5124000, 5130000, 5136000, 5142000, 5148000, 5154000, 5160000, 5166000, 5172000, 5178000, 5184000, 5190000, 5196000, 5202000, 5208000, 5214000, 5220000, 5226000, 5232000, 5238000, 5244000, 5250000, 5256000, 5262000, 5268000, 5274000, 5280000, 5286000, 5292000, 5298000, 5304000, 5310000, 5316000, 5322000, 5328000, 5334000, 5340000, 5346000, 5352000, 5358000, 5364000, 5370000, 5376000, 5382000, 5388000, 5394000, 5400000, 5406000, 5412000, 5418000, 5424000, 5430000, 5436000, 5442000, 5448000, 5454000, 5460000, 5466000, 5472000, 5478000, 5484000, 5490000, 5496000, 5502000, 5508000, 5514000, 5520000, 5526000, 5532000, 5538000, 5544000, 5550000, 5556000, 5562000, 5568000, 5574000, 5580000, 5586000, 5592000, 5598000, 5604000, 5610000, 5616000, 5622000, 5628000, 5634000, 5640000, 5646000, 5652000, 5658000, 5664000, 5670000, 5676000, 5682000, 5688000, 5694000, 5700000, 5706000, 5712000, 5718000, 5724000, 5730000, 5736000, 5742000, 5748000, 5754000, 5760000, 5766000, 5772000, 5778000, 5784000, 5790000, 5796000, 5802000, 5808000, 5814000, 5820000, 5826000, 5832000, 5838000, 5844000, 5850000, 5856000, 5862000, 5868000, 5874000, 5880000, 5886000, 5892000, 5898000, 5904000, 5910000, 5916000, 5922000, 5928000, 5934000, 5940000, 5946000, 5952000, 5958000, 5964000, 5970000, 5976000, 5982000, 5988000, 5994000, 6000000, 6006000, 6012000, 6018000, 6024000, 6030000, 6036000, 6042000, 6048000, 6054000, 6060000, 6066000, 6072000, 6078000, 6084000, 6090000, 6096000, 6102000, 6108000, 6114000, 6120000, 6126000, 6132000, 6138000, 6144000, 6150000, 6156000, 6162000, 6168000, 6174000, 6180000, 6186000, 6192000, 6198000, 6204000, 6210000, 6216000, 6222000, 6228000, 6234000, 6240000, 6246000, 6252000, 6258000, 6264000, 6270000, 6276000, 6282000, 6288000, 6294000, 6300000, 6306000, 6312000, 6318000, 6324000, 6330000, 6336000, 6342000, 6348000, 6354000, 6360000, 6366000, 6372000, 6378000, 6384000, 6390000, 6396000, 6402000, 6408000, 6414000, 6420000, 6426000, 6432000, 6438000, 6444000, 6450000, 6456000, 6462000, 6468000, 6474000, 6480000, 6486000, 6492000, 6498000, 6504000, 6510000, 6516000, 6522000, 6528000, 6534000, 6540000, 6546000, 6552000, 6558000, 6564000, 6570000, 6576000, 6582000, 6588000, 6594000, 6600000, 6606000, 6612000, 6618000, 6624000, 6630000, 6636000, 6642000, 6648000, 6654000, 6660000, 6666000, 6672000, 6678000, 6684000, 6690000, 6696000, 6702000, 6708000, 6714000, 6720000, 6726000, 6732000, 6738000, 6744000, 6750000, 6756000, 6762000, 6768000, 6774000, 6780000, 6786000, 6792000, 6798000, 6804000, 6810000, 6816000, 6822000, 6828000, 6834000, 6840000, 6846000, 6852000, 6858000, 6864000, 6870000, 6876000, 6882000, 6888000, 6894000, 6900000, 6906000, 6912000, 6918000, 6924000, 6930000, 6936000, 6942000, 6948000, 6954000, 6960000, 6966000, 6972000, 6978000, 6984000, 6990000, 6996000, 7002000, 7008000, 7014000, 7020000, 7026000, 7032000, 7038000, 7044000, 7050000, 7056000, 7062000, 7068000, 7074000, 7080000, 7086000, 7092000, 7098000, 7104000, 7110000, 7116000, 7122000, 7128000, 7134000, 7140000, 7146000, 7152000, 7158000, 7164000, 7170000, 7176000, 7182000, 7188000, 7194000, 7200000, 7206000, 7212000, 7218000, 7224000, 7230000, 7236000, 7242000, 7248000, 7254000, 7260000, 7266000, 7272000, 7278000, 7284000, 7290000, 7296000, 7302000, 7308000, 7314000, 7320000, 7326000, 7332000, 7338000, 7344000, 7350000, 7356000, 7362000, 7368000, 7374000, 7380000, 7386000, 7392000, 7398000, 7404000, 7410000, 7416000, 7422000, 7428000, 7434000, 7440000, 7446000, 7452000, 7458000, 7464000, 7470000, 7476000, 7482000, 7488000, 7494000, 7500000, 7506000, 7512000, 7518000, 7524000, 7530000, 7536000, 7542000, 7548000, 7554000, 7560000, 7566000, 7572000, 7578000, 7584000, 7590000, 7596000, 7602000, 7608000, 7614000, 7620000, 7626000, 7632000, 7638000, 7644000, 7650000, 7656000, 7662000, 7668000, 7674000, 7680000, 7686000, 7692000, 7698000, 7704000, 7710000, 7716000, 7722000, 7728000, 7734000, 7740000, 7746000, 7752000, 7758000, 7764000, 7770000, 7776000, 7782000, 7788000, 7794000, 7800000, 7806000, 7812000, 7818000, 7824000, 7830000, 7836000, 7842000, 7848000, 7854000, 7860000, 7866000, 7872000, 7878000, 7884000, 7890000, 7896000, 7902000, 7908000, 7914000, 7920000, 7926000, 7932000, 7938000, 7944000, 7950000, 7956000, 7962000, 7968000, 7974000, 7980000, 7986000, 7992000, 7998000, 8004000, 8010000, 8016000, 8022000, 8028000, 8034000, 8040000, 8046000, 8052000, 8058000, 8064000, 8070000, 8076000, 8082000, 8088000, 8094000, 8100000, 8106000, 8112000, 8118000, 8124000, 8130000, 8136000, 8142000, 8148000, 8154000, 8160000, 8166000, 8172000, 8178000, 8184000, 8190000, 8196000, 8202000, 8208000, 8214000, 8220000, 8226000, 8232000, 8238000, 8244000, 8250000, 8256000, 8262000, 8268000, 8274000, 8280000, 8286000, 8292000, 8298000, 8304000, 8310000, 8316000, 8322000, 8328000, 8334000, 8340000, 8346000, 8352000, 8358000, 8364000, 8370000, 8376000, 8382000, 8388000, 8394000, 8400000, 8406000, 8412000, 8418000, 8424000, 8430000, 8436000, 8442000, 8448000, 8454000, 8460000, 8466000, 8472000, 8478000, 8484000, 8490000, 8496000, 8502000, 8508000, 8514000, 8520000, 8526000, 8532000, 8538000, 8544000, 8550000, 8556000, 8562000, 8568000, 8574000, 8580000, 8586000, 8592000, 8598000, 8604000, 8610000, 8616000, 8622000, 8628000, 8634000, 8640000, 8646000, 8652000, 8658000, 8664000, 8670000, 8676000, 8682000, 8688000, 8694000, 8700000, 8706000, 8712000, 8718000, 8724000, 8730000, 8736000, 8742000, 8748000, 8754000, 8760000, 8766000, 8772000, 8778000, 8784000, 8790000, 8796000, 8802000, 8808000, 8814000, 8820000, 8826000, 8832000, 8838000, 8844000, 8850000, 8856000, 8862000, 8868000, 8874000, 8880000, 8886000, 8892000, 8898000, 8904000, 8910000, 8916000, 8922000, 8928000, 8934000, 8940000, 8946000, 8952000, 8958000, 8964000, 8970000, 8976000, 8982000, 8988000, 8994000, 9000000, 9006000, 9012000, 9018000, 9024000, 9030000, 9036000, 9042000, 9048000, 9054000, 9060000, 9066000, 9072000, 9078000, 9084000, 9090000, 9096000, 9102000, 9108000, 9114000, 9120000, 9126000, 9132000, 9138000, 9144000, 9150000, 9156000, 9162000, 9168000, 9174000, 9180000, 9186000, 9192000, 9198000, 9204000, 9210000, 9216000, 9222000, 9228000, 9234000, 9240000, 9246000, 9252000, 9258000, 9264000, 9270000, 9276000, 9282000, 9288000, 9294000, 9300000, 9306000, 9312000, 9318000, 9324000, 9330000, 9336000, 9342000, 9348000, 9354000, 9360000, 9366000, 9372000, 9378000, 9384000, 9390000, 9396000, 9402000, 9408000, 9414000, 9420000, 9426000, 9432000, 9438000, 9444000, 9450000, 9456000, 9462000, 9468000, 9474000, 9480000, 9486000, 9492000, 9498000, 9504000, 9510000, 9516000, 9522000, 9528000, 9534000, 9540000, 9546000, 9552000, 9558000, 9564000, 9570000, 9576000, 9582000, 9588000, 9594000, 9600000, 9606000, 9612000, 9618000, 9624000, 9630000, 9636000, 9642000, 9648000, 9654000, 9660000, 9666000, 9672000, 9678000, 9684000, 9690000, 9696000, 9702000, 9708000, 9714000, 9720000, 9726000, 9732000, 9738000, 9744000, 9750000, 9756000, 9762000, 9768000, 9774000, 9780000, 9786000, 9792000, 9798000, 9804000, 9810000, 9816000, 9822000, 9828000, 9834000, 9840000, 9846000, 9852000, 9858000, 9864000, 9870000, 9876000, 9882000, 9888000, 9894000, 9900000, 9906000, 9912000, 9918000, 9924000, 9930000, 9936000, 9942000, 9948000, 9954000, 9960000, 9966000, 9972000, 9978000, 9984000, 9990000, 9996000, 10002000, 10008000, 10014000, 10020000, 10026000, 10032000, 10038000, 10044000, 10050000, 10056000, 10062000, 10068000, 10074000, 10080000, 10086000, 10092000, 10098000, 10104000, 10110000, 10116000, 10122000, 10128000, 10134000, 10140000, 10146000, 10152000, 10158000, 10164000, 10170000, 10176000, 10182000, 10188000, 10194000, 10200000, 10206000, 10212000, 10218000, 10224000, 10230000, 10236000, 10242000, 10248000, 10254000, 10260000, 10266000, 10272000, 10278000, 10284000, 10290000, 10296000, 10302000, 10308000, 10314000, 10320000, 10326000, 10332000, 10338000, 10344000, 10350000, 10356000, 10362000, 10368000, 10374000, 10380000, 10386000, 10392000, 10398000, 10404000, 10410000, 10416000, 10422000, 10428000, 10434000, 10440000, 10446000, 10452000, 10458000, 10464000, 10470000, 10476000, 10482000, 10488000, 10494000, 10500000, 10506000, 10512000, 10518000, 10524000, 10530000, 10536000, 10542000, 10548000, 10554000, 10560000, 10566000, 10572000, 10578000, 10584000, 10590000, 10596000, 10602000, 10608000, 10614000, 10620000, 10626000, 10632000, 10638000, 10644000, 10650000, 10656000, 10662000, 10668000, 10674000, 10680000, 10686000, 10692000, 10698000, 10704000, 10710000, 10716000, 10722000, 10728000, 10734000, 10740000, 10746000, 10752000, 10758000, 10764000, 10770000, 10776000, 10782000, 10788000, 10794000, 10800000, 10806000, 10812000, 10818000, 10824000, 10830000, 10836000, 10842000, 10848000, 10854000, 10860000, 10866000, 10872000, 10878000, 10884000, 10890000, 10896000, 10902000, 10908000, 10914000, 10920000, 10926000, 10932000, 10938000, 10944000, 10950000, 10956000, 10962000, 10968000, 10974000, 10980000, 10986000, 10992000, 10998000, 11004000, 11010000, 11016000, 11022000, 11028000, 11034000, 11040000, 11046000, 11052000, 11058000, 11064000, 11070000, 11076000, 11082000, 11088000, 11094000, 11100000, 11106000, 11112000, 11118000, 11124000, 11130000, 11136000, 11142000, 11148000, 11154000, 11160000, 11166000, 11172000, 11178000, 11184000, 11190000, 11196000, 11202000, 11208000, 11214000, 11220000, 11226000, 11232000, 11238000, 11244000, 11250000, 11256000, 11262000, 11268000, 11274000, 11280000, 11286000, 11292000, 11298000, 11304000, 11310000, 11316000, 11322000, 11328000, 11334000, 11340000, 11346000, 11352000, 11358000, 11364000, 11370000, 11376000, 11382000, 11388000, 11394000, 11400000, 11406000, 11412000, 11418000, 11424000, 11430000, 11436000, 11442000, 11448000, 11454000, 11460000, 11466000, 11472000, 11478000, 11484000, 11490000, 11496000, 11502000, 11508000, 11514000, 11520000, 11526000, 11532000, 11538000, 11544000, 11550000, 11556000, 11562000, 11568000, 11574000, 11580000, 11586000, 11592000, 11598000, 11604000, 11610000, 11616000, 11622000, 11628000, 11634000, 11640000, 11646000, 11652000, 11658000, 11664000, 11670000, 11676000, 11682000, 11688000, 11694000, 11700000, 11706000, 11712000, 11718000, 11724000, 11730000, 11736000, 11742000, 11748000, 11754000, 11760000, 11766000, 11772000, 11778000, 11784000, 11790000, 11796000, 11802000, 11808000, 11814000, 11820000, 11826000, 11832000, 11838000, 11844000, 11850000, 11856000, 11862000, 11868000, 11874000, 11880000, 11886000, 11892000, 11898000, 11904000, 11910000, 11916000, 11922000, 11928000, 11934000, 11940000, 11946000, 11952000, 11958000, 11964000, 11970000, 11976000, 11982000, 11988000, 11994000, 12000000, 12006000, 12012000, 12018000, 12024000, 12030000, 12036000, 12042000, 12048000, 12054000, 12060000, 12066000, 12072000, 12078000, 12084000, 12090000, 12096000, 12102000, 12108000, 12114000, 12120000, 12126000, 12132000, 12138000, 12144000, 12150000, 12156000, 12162000, 12168000, 12174000, 12180000, 12186000, 12192000, 12198000, 12204000, 12210000, 12216000, 12222000, 12228000, 12234000, 12240000, 12246000, 12252000, 12258000, 12264000, 12270000, 12276000, 12282000, 12288000, 12294000, 12300000, 12306000, 12312000, 12318000, 12324000, 12330000, 12336000, 12342000, 12348000, 12354000, 12360000, 12366000, 12372000, 12378000, 12384000, 12390000, 12396000, 12402000, 12408000, 12414000, 12420000, 12426000, 12432000, 12438000, 12444000, 12450000, 12456000, 12462000, 12468000, 12474000, 12480000, 12486000, 12492000, 12498000, 12504000, 12510000, 12516000, 12522000, 12528000, 12534000, 12540000, 12546000, 12552000, 12558000, 12564000, 12570000, 12576000, 12582000, 12588000, 12594000, 12600000, 12606000, 12612000, 12618000, 12624000, 12630000, 12636000, 12642000, 12648000, 12654000, 12660000, 12666000, 12672000, 12678000, 12684000, 12690000, 12696000, 12702000, 12708000, 12714000, 12720000, 12726000, 12732000, 12738000, 12744000, 12750000, 12756000, 12762000, 12768000, 12774000, 12780000, 12786000, 12792000, 12798000, 12804000, 12810000, 12816000, 12822000, 12828000, 12834000, 12840000, 12846000, 12852000, 12858000, 12864000, 12870000, 12876000, 12882000, 12888000, 12894000, 12900000, 12906000, 12912000, 12918000, 12924000, 12930000, 12936000, 12942000, 12948000, 12954000, 12960000, 12966000, 12972000, 12978000, 12984000, 12990000, 12996000, 13002000, 13008000, 13014000, 13020000, 13026000, 13032000, 13038000, 13044000, 13050000, 13056000, 13062000, 13068000, 13074000, 13080000, 13086000, 13092000, 13098000, 13104000, 13110000, 13116000, 13122000, 13128000, 13134000, 13140000, 13146000, 13152000, 13158000, 13164000, 13170000, 13176000, 13182000, 13188000, 13194000, 13200000, 13206000, 13212000, 13218000, 13224000, 13230000, 13236000, 13242000, 13248000, 13254000, 13260000, 13266000, 13272000, 13278000, 13284000, 13290000, 13296000, 13302000, 13308000, 13314000, 13320000, 13326000, 13332000, 13338000, 13344000, 13350000, 13356000, 13362000, 13368000, 13374000, 13380000, 13386000, 13392000, 13398000, 13404000, 13410000, 13416000, 13422000, 13428000, 13434000, 13440000, 13446000, 13452000, 13458000, 13464000, 13470000, 13476000, 13482000, 13488000, 13494000, 13500000, 13506000, 13512000, 13518000, 13524000, 13530000, 13536000, 13542000, 13548000, 13554000, 13560000, 13566000, 13572000, 13578000, 13584000, 13590000, 13596000, 13602000, 13608000, 13614000, 13620000, 13626000, 13632000, 13638000, 13644000, 13650000, 13656000, 13662000, 13668000, 13674000, 13680000, 13686000, 13692000, 13698000, 13704000, 13710000, 13716000, 13722000, 13728000, 13734000, 13740000, 13746000, 13752000, 13758000, 13764000, 13770000, 13776000, 13782000, 13788000, 13794000, 13800000, 13806000, 13812000, 13818000, 13824000, 13830000, 13836000, 13842000, 13848000, 13854000, 13860000, 13866000, 13872000, 13878000, 13884000, 13890000, 13896000, 13902000, 13908000, 13914000, 13920000, 13926000, 13932000, 13938000, 13944000, 13950000, 13956000, 13962000, 13968000, 13974000, 13980000, 13986000, 13992000, 13998000, 14004000, 14010000, 14016000, 14022000, 14028000, 14034000, 14040000, 14046000, 14052000, 14058000, 14064000, 14070000, 14076000, 14082000, 14088000, 14094000, 14100000, 14106000, 14112000, 14118000, 14124000, 14130000, 14136000, 14142000, 14148000, 14154000, 14160000, 14166000, 14172000, 14178000, 14184000, 14190000, 14196000, 14202000, 14208000, 14214000, 14220000, 14226000, 14232000, 14238000, 14244000, 14250000, 14256000, 14262000, 14268000, 14274000, 14280000, 14286000, 14292000, 14298000, 14304000, 14310000, 14316000, 14322000, 14328000, 14334000, 14340000, 14346000, 14352000, 14358000, 14364000, 14370000, 14376000, 14382000, 14388000, 14394000, 14400000, 14406000, 14412000, 14418000, 14424000, 14430000, 14436000, 14442000, 14448000, 14454000, 14460000, 14466000, 14472000, 14478000, 14484000, 14490000, 14496000, 14502000, 14508000, 14514000, 14520000, 14526000, 14532000, 14538000, 14544000, 14550000, 14556000, 14562000, 14568000, 14574000, 14580000, 14586000, 14592000, 14598000, 14604000, 14610000, 14616000, 14622000, 14628000, 14634000, 14640000, 14646000, 14652000, 14658000, 14664000, 14670000, 14676000, 14682000, 14688000, 14694000, 14700000, 14706000, 14712000, 14718000, 14724000, 14730000, 14736000, 14742000, 14748000, 14754000, 14760000, 14766000, 14772000, 14778000, 14784000, 14790000, 14796000, 14802000, 14808000, 14814000, 14820000, 14826000, 14832000, 14838000, 14844000, 14850000, 14856000, 14862000, 14868000, 14874000, 14880000, 14886000, 14892000, 14898000, 14904000, 14910000, 14916000, 14922000, 14928000, 14934000, 14940000, 14946000, 14952000, 14958000, 14964000, 14970000, 14976000, 14982000, 14988000, 14994000, 15000000, 15006000, 15012000, 15018000, 15024000, 15030000, 15036000, 15042000, 15048000, 15054000, 15060000, 15066000, 15072000, 15078000, 15084000, 15090000, 15096000, 15102000, 15108000, 15114000, 15120000, 15126000, 15132000, 15138000, 15144000, 15150000, 15156000, 15162000, 15168000, 15174000, 15180000, 15186000, 15192000, 15198000, 15204000, 15210000, 15216000, 15222000, 15228000, 15234000, 15240000, 15246000, 15252000, 15258000, 15264000, 15270000, 15276000, 15282000, 15288000, 15294000, 15300000, 15306000, 15312000, 15318000, 15324000, 15330000, 15336000, 15342000, 15348000, 15354000, 15360000, 15366000, 15372000, 15378000, 15384000, 15390000, 15396000, 15402000, 15408000, 15414000, 15420000, 15426000, 15432000, 15438000, 15444000, 15450000, 15456000, 15462000, 15468000, 15474000, 15480000, 15486000, 15492000, 15498000, 15504000, 15510000, 15516000, 15522000, 15528000, 15534000, 15540000, 15546000, 15552000, 15558000, 15564000, 15570000, 15576000, 15582000, 15588000, 15594000, 15600000, 15606000, 15612000, 15618000, 15624000, 15630000, 15636000, 15642000, 15648000, 15654000, 15660000, 15666000, 15672000, 15678000, 15684000, 15690000, 15696000, 15702000, 15708000, 15714000, 15720000, 15726000, 15732000, 15738000, 15744000, 15750000, 15756000, 15762000, 15768000, 15774000, 15780000, 15786000, 15792000, 15798000, 15804000, 15810000, 15816000, 15822000, 15828000, 15834000, 15840000, 15846000, 15852000, 15858000, 15864000, 15870000, 15876000, 15882000, 15888000, 15894000, 15900000, 15906000, 15912000, 15918000, 15924000, 15930000, 15936000, 15942000, 15948000, 15954000, 15960000, 15966000, 15972000, 15978000, 15984000, 15990000, 15996000, 16002000, 16008000, 16014000, 16020000, 16026000, 16032000, 16038000, 16044000, 16050000, 16056000, 16062000, 16068000, 16074000, 16080000, 16086000, 16092000, 16098000, 16104000, 16110000, 16116000, 16122000, 16128000, 16134000, 16140000, 16146000, 16152000, 16158000, 16164000, 16170000, 16176000, 16182000, 16188000, 16194000, 16200000, 16206000, 16212000, 16218000, 16224000, 16230000, 16236000, 16242000, 16248000, 16254000, 16260000, 16266000, 16272000, 16278000, 16284000, 16290000, 16296000, 16302000, 16308000, 16314000, 16320000, 16326000, 16332000, 16338000, 16344000, 16350000, 16356000, 16362000, 16368000, 16374000, 16380000, 16386000, 16392000, 16398000, 16404000, 16410000, 16416000, 16422000, 16428000, 16434000, 16440000, 16446000, 16452000, 16458000, 16464000, 16470000, 16476000, 16482000, 16488000, 16494000, 16500000, 16506000, 16512000, 16518000, 16524000, 16530000, 16536000, 16542000, 16548000, 16554000, 16560000, 16566000, 16572000, 16578000, 16584000, 16590000, 16596000, 16602000, 16608000, 16614000, 16620000, 16626000, 16632000, 16638000, 16644000, 16650000, 16656000, 16662000, 16668000, 16674000, 16680000, 16686000, 16692000, 16698000, 16704000, 16710000, 16716000, 16722000, 16728000, 16734000, 16740000, 16746000, 16752000, 16758000, 16764000, 16770000, 16776000, 16782000, 16788000, 16794000, 16800000, 16806000, 16812000, 16818000, 16824000, 16830000, 16836000, 16842000, 16848000, 16854000, 16860000, 16866000, 16872000, 16878000, 16884000, 16890000, 16896000, 16902000, 16908000, 16914000, 16920000, 16926000, 16932000, 16938000, 16944000, 16950000, 16956000, 16962000, 16968000, 16974000, 16980000, 16986000, 16992000, 16998000, 17004000, 17010000, 17016000, 17022000, 17028000, 17034000, 17040000, 17046000, 17052000, 17058000, 17064000, 17070000, 17076000, 17082000, 17088000, 17094000, 17100000, 17106000, 17112000, 17118000, 17124000, 17130000, 17136000, 17142000, 17148000, 17154000, 17160000, 17166000, 17172000, 17178000, 17184000, 17190000, 17196000, 17202000, 17208000, 17214000, 17220000, 17226000, 17232000, 17238000, 17244000, 17250000, 17256000, 17262000, 17268000, 17274000]"
003,200,30,17280000,2880,"[0, 6000, 12000, 18000, 24000, 30000, 36000, 42000, 48000, 54000, 60000, 66000, 72000, 78000, 84000, 90000, 96000, 102000, 108000, 114000, 120000, 126000, 132000, 138000, 144000, 150000, 156000, 162000, 168000, 174000, 180000, 186000, 192000, 198000, 204000, 210000, 216000, 222000, 228000, 234000, 240000, 246000, 252000, 258000, 264000, 270000, 276000, 282000, 288000, 294000, 300000, 306000, 312000, 318000, 324000, 330000, 336000, 342000, 348000, 354000, 360000, 366000, 372000, 378000, 384000, 390000, 396000, 402000, 408000, 414000, 420000, 426000, 432000, 438000, 444000, 450000, 456000, 462000, 468000, 474000, 480000, 486000, 492000, 498000, 504000, 510000, 516000, 522000, 528000, 534000, 540000, 546000, 552000, 558000, 564000, 570000, 576000, 582000, 588000, 594000, 600000, 606000, 612000, 618000, 624000, 630000, 636000, 642000, 648000, 654000, 660000, 666000, 672000, 678000, 684000, 690000, 696000, 702000, 708000, 714000, 720000, 726000, 732000, 738000, 744000, 750000, 756000, 762000, 768000, 774000, 780000, 786000, 792000, 798000, 804000, 810000, 816000, 822000, 828000, 834000, 840000, 846000, 852000, 858000, 864000, 870000, 876000, 882000, 888000, 894000, 900000, 906000, 912000, 918000, 924000, 930000, 936000, 942000, 948000, 954000, 960000, 966000, 972000, 978000, 984000, 990000, 996000, 1002000, 1008000, 1014000, 1020000, 1026000, 1032000, 1038000, 1044000, 1050000, 1056000, 1062000, 1068000, 1074000, 1080000, 1086000, 1092000, 1098000, 1104000, 1110000, 1116000, 1122000, 1128000, 1134000, 1140000, 1146000, 1152000, 1158000, 1164000, 1170000, 1176000, 1182000, 1188000, 1194000, 1200000, 1206000, 1212000, 1218000, 1224000, 1230000, 1236000, 1242000, 1248000, 1254000, 1260000, 1266000, 1272000, 1278000, 1284000, 1290000, 1296000, 1302000, 1308000, 1314000, 1320000, 1326000, 1332000, 1338000, 1344000, 1350000, 1356000, 1362000, 1368000, 1374000, 1380000, 1386000, 1392000, 1398000, 1404000, 1410000, 1416000, 1422000, 1428000, 1434000, 1440000, 1446000, 1452000, 1458000, 1464000, 1470000, 1476000, 1482000, 1488000, 1494000, 1500000, 1506000, 1512000, 1518000, 1524000, 1530000, 1536000, 1542000, 1548000, 1554000, 1560000, 1566000, 1572000, 1578000, 1584000, 1590000, 1596000, 1602000, 1608000, 1614000, 1620000, 1626000, 1632000, 1638000, 1644000, 1650000, 1656000, 1662000, 1668000, 1674000, 1680000, 1686000, 1692000, 1698000, 1704000, 1710000, 1716000, 1722000, 1728000, 1734000, 1740000, 1746000, 1752000, 1758000, 1764000, 1770000, 1776000, 1782000, 1788000, 1794000, 1800000, 1806000, 1812000, 1818000, 1824000, 1830000, 1836000, 1842000, 1848000, 1854000, 1860000, 1866000, 1872000, 1878000, 1884000, 1890000, 1896000, 1902000, 1908000, 1914000, 1920000, 1926000, 1932000, 1938000, 1944000, 1950000, 1956000, 1962000, 1968000, 1974000, 1980000, 1986000, 1992000, 1998000, 2004000, 2010000, 2016000, 2022000, 2028000, 2034000, 2040000, 2046000, 2052000, 2058000, 2064000, 2070000, 2076000, 2082000, 2088000, 2094000, 2100000, 2106000, 2112000, 2118000, 2124000, 2130000, 2136000, 2142000, 2148000, 2154000, 2160000, 2166000, 2172000, 2178000, 2184000, 2190000, 2196000, 2202000, 2208000, 2214000, 2220000, 2226000, 2232000, 2238000, 2244000, 2250000, 2256000, 2262000, 2268000, 2274000, 2280000, 2286000, 2292000, 2298000, 2304000, 2310000, 2316000, 2322000, 2328000, 2334000, 2340000, 2346000, 2352000, 2358000, 2364000, 2370000, 2376000, 2382000, 2388000, 2394000, 2400000, 2406000, 2412000, 2418000, 2424000, 2430000, 2436000, 2442000, 2448000, 2454000, 2460000, 2466000, 2472000, 2478000, 2484000, 2490000, 2496000, 2502000, 2508000, 2514000, 2520000, 2526000, 2532000, 2538000, 2544000, 2550000, 2556000, 2562000, 2568000, 2574000, 2580000, 2586000, 2592000, 2598000, 2604000, 2610000, 2616000, 2622000, 2628000, 2634000, 2640000, 2646000, 2652000, 2658000, 2664000, 2670000, 2676000, 2682000, 2688000, 2694000, 2700000, 2706000, 2712000, 2718000, 2724000, 2730000, 2736000, 2742000, 2748000, 2754000, 2760000, 2766000, 2772000, 2778000, 2784000, 2790000, 2796000, 2802000, 2808000, 2814000, 2820000, 2826000, 2832000, 2838000, 2844000, 2850000, 2856000, 2862000, 2868000, 2874000, 2880000, 2886000, 2892000, 2898000, 2904000, 2910000, 2916000, 2922000, 2928000, 2934000, 2940000, 2946000, 2952000, 2958000, 2964000, 2970000, 2976000, 2982000, 2988000, 2994000, 3000000, 3006000, 3012000, 3018000, 3024000, 3030000, 3036000, 3042000, 3048000, 3054000, 3060000, 3066000, 3072000, 3078000, 3084000, 3090000, 3096000, 3102000, 3108000, 3114000, 3120000, 3126000, 3132000, 3138000, 3144000, 3150000, 3156000, 3162000, 3168000, 3174000, 3180000, 3186000, 3192000, 3198000, 3204000, 3210000, 3216000, 3222000, 3228000, 3234000, 3240000, 3246000, 3252000, 3258000, 3264000, 3270000, 3276000, 3282000, 3288000, 3294000, 3300000, 3306000, 3312000, 3318000, 3324000, 3330000, 3336000, 3342000, 3348000, 3354000, 3360000, 3366000, 3372000, 3378000, 3384000, 3390000, 3396000, 3402000, 3408000, 3414000, 3420000, 3426000, 3432000, 3438000, 3444000, 3450000, 3456000, 3462000, 3468000, 3474000, 3480000, 3486000, 3492000, 3498000, 3504000, 3510000, 3516000, 3522000, 3528000, 3534000, 3540000, 3546000, 3552000, 3558000, 3564000, 3570000, 3576000, 3582000, 3588000, 3594000, 3600000, 3606000, 3612000, 3618000, 3624000, 3630000, 3636000, 3642000, 3648000, 3654000, 3660000, 3666000, 3672000, 3678000, 3684000, 3690000, 3696000, 3702000, 3708000, 3714000, 3720000, 3726000, 3732000, 3738000, 3744000, 3750000, 3756000, 3762000, 3768000, 3774000, 3780000, 3786000, 3792000, 3798000, 3804000, 3810000, 3816000, 3822000, 3828000, 3834000, 3840000, 3846000, 3852000, 3858000, 3864000, 3870000, 3876000, 3882000, 3888000, 3894000, 3900000, 3906000, 3912000, 3918000, 3924000, 3930000, 3936000, 3942000, 3948000, 3954000, 3960000, 3966000, 3972000, 3978000, 3984000, 3990000, 3996000, 4002000, 4008000, 4014000, 4020000, 4026000, 4032000, 4038000, 4044000, 4050000, 4056000, 4062000, 4068000, 4074000, 4080000, 4086000, 4092000, 4098000, 4104000, 4110000, 4116000, 4122000, 4128000, 4134000, 4140000, 4146000, 4152000, 4158000, 4164000, 4170000, 4176000, 4182000, 4188000, 4194000, 4200000, 4206000, 4212000, 4218000, 4224000, 4230000, 4236000, 4242000, 4248000, 4254000, 4260000, 4266000, 4272000, 4278000, 4284000, 4290000, 4296000, 4302000, 4308000, 4314000, 4320000, 4326000, 4332000, 4338000, 4344000, 4350000, 4356000, 4362000, 4368000, 4374000, 4380000, 4386000, 4392000, 4398000, 4404000, 4410000, 4416000, 4422000, 4428000, 4434000, 4440000, 4446000, 4452000, 4458000, 4464000, 4470000, 4476000, 4482000, 4488000, 4494000, 4500000, 4506000, 4512000, 4518000, 4524000, 4530000, 4536000, 4542000, 4548000, 4554000, 4560000, 4566000, 4572000, 4578000, 4584000, 4590000, 4596000, 4602000, 4608000, 4614000, 4620000, 4626000, 4632000, 4638000, 4644000, 4650000, 4656000, 4662000, 4668000, 4674000, 4680000, 4686000, 4692000, 4698000, 4704000, 4710000, 4716000, 4722000, 4728000, 4734000, 4740000, 4746000, 4752000, 4758000, 4764000, 4770000, 4776000, 4782000, 4788000, 4794000, 4800000, 4806000, 4812000, 4818000, 4824000, 4830000, 4836000, 4842000, 4848000, 4854000, 4860000, 4866000, 4872000, 4878000, 4884000, 4890000, 4896000, 4902000, 4908000, 4914000, 4920000, 4926000, 4932000, 4938000, 4944000, 4950000, 4956000, 4962000, 4968000, 4974000, 4980000, 4986000, 4992000, 4998000, 5004000, 5010000, 5016000, 5022000, 5028000, 5034000, 5040000, 5046000, 5052000, 5058000, 5064000, 5070000, 5076000, 5082000, 5088000, 5094000, 5100000, 5106000, 5112000, 5118000, 5124000, 5130000, 5136000, 5142000, 5148000, 5154000, 5160000, 5166000, 5172000, 5178000, 5184000, 5190000, 5196000, 5202000, 5208000, 5214000, 5220000, 5226000, 5232000, 5238000, 5244000, 5250000, 5256000, 5262000, 5268000, 5274000, 5280000, 5286000, 5292000, 5298000, 5304000, 5310000, 5316000, 5322000, 5328000, 5334000, 5340000, 5346000, 5352000, 5358000, 5364000, 5370000, 5376000, 5382000, 5388000, 5394000, 5400000, 5406000, 5412000, 5418000, 5424000, 5430000, 5436000, 5442000, 5448000, 5454000, 5460000, 5466000, 5472000, 5478000, 5484000, 5490000, 5496000, 5502000, 5508000, 5514000, 5520000, 5526000, 5532000, 5538000, 5544000, 5550000, 5556000, 5562000, 5568000, 5574000, 5580000, 5586000, 5592000, 5598000, 5604000, 5610000, 5616000, 5622000, 5628000, 5634000, 5640000, 5646000, 5652000, 5658000, 5664000, 5670000, 5676000, 5682000, 5688000, 5694000, 5700000, 5706000, 5712000, 5718000, 5724000, 5730000, 5736000, 5742000, 5748000, 5754000, 5760000, 5766000, 5772000, 5778000, 5784000, 5790000, 5796000, 5802000, 5808000, 5814000, 5820000, 5826000, 5832000, 5838000, 5844000, 5850000, 5856000, 5862000, 5868000, 5874000, 5880000, 5886000, 5892000, 5898000, 5904000, 5910000, 5916000, 5922000, 5928000, 5934000, 5940000, 5946000, 5952000, 5958000, 5964000, 5970000, 5976000, 5982000, 5988000, 5994000, 6000000, 6006000, 6012000, 6018000, 6024000, 6030000, 6036000, 6042000, 6048000, 6054000, 6060000, 6066000, 6072000, 6078000, 6084000, 6090000, 6096000, 6102000, 6108000, 6114000, 6120000, 6126000, 6132000, 6138000, 6144000, 6150000, 6156000, 6162000, 6168000, 6174000, 6180000, 6186000, 6192000, 6198000, 6204000, 6210000, 6216000, 6222000, 6228000, 6234000, 6240000, 6246000, 6252000, 6258000, 6264000, 6270000, 6276000, 6282000, 6288000, 6294000, 6300000, 6306000, 6312000, 6318000, 6324000, 6330000, 6336000, 6342000, 6348000, 6354000, 6360000, 6366000, 6372000, 6378000, 6384000, 6390000, 6396000, 6402000, 6408000, 6414000, 6420000, 6426000, 6432000, 6438000, 6444000, 6450000, 6456000, 6462000, 6468000, 6474000, 6480000, 6486000, 6492000, 6498000, 6504000, 6510000, 6516000, 6522000, 6528000, 6534000, 6540000, 6546000, 6552000, 6558000, 6564000, 6570000, 6576000, 6582000, 6588000, 6594000, 6600000, 6606000, 6612000, 6618000, 6624000, 6630000, 6636000, 6642000, 6648000, 6654000, 6660000, 6666000, 6672000, 6678000, 6684000, 6690000, 6696000, 6702000, 6708000, 6714000, 6720000, 6726000, 6732000, 6738000, 6744000, 6750000, 6756000, 6762000, 6768000, 6774000, 6780000, 6786000, 6792000, 6798000, 6804000, 6810000, 6816000, 6822000, 6828000, 6834000, 6840000, 6846000, 6852000, 6858000, 6864000, 6870000, 6876000, 6882000, 6888000, 6894000, 6900000, 6906000, 6912000, 6918000, 6924000, 6930000, 6936000, 6942000, 6948000, 6954000, 6960000, 6966000, 6972000, 6978000, 6984000, 6990000, 6996000, 7002000, 7008000, 7014000, 7020000, 7026000, 7032000, 7038000, 7044000, 7050000, 7056000, 7062000, 7068000, 7074000, 7080000, 7086000, 7092000, 7098000, 7104000, 7110000, 7116000, 7122000, 7128000, 7134000, 7140000, 7146000, 7152000, 7158000, 7164000, 7170000, 7176000, 7182000, 7188000, 7194000, 7200000, 7206000, 7212000, 7218000, 7224000, 7230000, 7236000, 7242000, 7248000, 7254000, 7260000, 7266000, 7272000, 7278000, 7284000, 7290000, 7296000, 7302000, 7308000, 7314000, 7320000, 7326000, 7332000, 7338000, 7344000, 7350000, 7356000, 7362000, 7368000, 7374000, 7380000, 7386000, 7392000, 7398000, 7404000, 7410000, 7416000, 7422000, 7428000, 7434000, 7440000, 7446000, 7452000, 7458000, 7464000, 7470000, 7476000, 7482000, 7488000, 7494000, 7500000, 7506000, 7512000, 7518000, 7524000, 7530000, 7536000, 7542000, 7548000, 7554000, 7560000, 7566000, 7572000, 7578000, 7584000, 7590000, 7596000, 7602000, 7608000, 7614000, 7620000, 7626000, 7632000, 7638000, 7644000, 7650000, 7656000, 7662000, 7668000, 7674000, 7680000, 7686000, 7692000, 7698000, 7704000, 7710000, 7716000, 7722000, 7728000, 7734000, 7740000, 7746000, 7752000, 7758000, 7764000, 7770000, 7776000, 7782000, 7788000, 7794000, 7800000, 7806000, 7812000, 7818000, 7824000, 7830000, 7836000, 7842000, 7848000, 7854000, 7860000, 7866000, 7872000, 7878000, 7884000, 7890000, 7896000, 7902000, 7908000, 7914000, 7920000, 7926000, 7932000, 7938000, 7944000, 7950000, 7956000, 7962000, 7968000, 7974000, 7980000, 7986000, 7992000, 7998000, 8004000, 8010000, 8016000, 8022000, 8028000, 8034000, 8040000, 8046000, 8052000, 8058000, 8064000, 8070000, 8076000, 8082000, 8088000, 8094000, 8100000, 8106000, 8112000, 8118000, 8124000, 8130000, 8136000, 8142000, 8148000, 8154000, 8160000, 8166000, 8172000, 8178000, 8184000, 8190000, 8196000, 8202000, 8208000, 8214000, 8220000, 8226000, 8232000, 8238000, 8244000, 8250000, 8256000, 8262000, 8268000, 8274000, 8280000, 8286000, 8292000, 8298000, 8304000, 8310000, 8316000, 8322000, 8328000, 8334000, 8340000, 8346000, 8352000, 8358000, 8364000, 8370000, 8376000, 8382000, 8388000, 8394000, 8400000, 8406000, 8412000, 8418000, 8424000, 8430000, 8436000, 8442000, 8448000, 8454000, 8460000, 8466000, 8472000, 8478000, 8484000, 8490000, 8496000, 8502000, 8508000, 8514000, 8520000, 8526000, 8532000, 8538000, 8544000, 8550000, 8556000, 8562000, 8568000, 8574000, 8580000, 8586000, 8592000, 8598000, 8604000, 8610000, 8616000, 8622000, 8628000, 8634000, 8640000, 8646000, 8652000, 8658000, 8664000, 8670000, 8676000, 8682000, 8688000, 8694000, 8700000, 8706000, 8712000, 8718000, 8724000, 8730000, 8736000, 8742000, 8748000, 8754000, 8760000, 8766000, 8772000, 8778000, 8784000, 8790000, 8796000, 8802000, 8808000, 8814000, 8820000, 8826000, 8832000, 8838000, 8844000, 8850000, 8856000, 8862000, 8868000, 8874000, 8880000, 8886000, 8892000, 8898000, 8904000, 8910000, 8916000, 8922000, 8928000, 8934000, 8940000, 8946000, 8952000, 8958000, 8964000, 8970000, 8976000, 8982000, 8988000, 8994000, 9000000, 9006000, 9012000, 9018000, 9024000, 9030000, 9036000, 9042000, 9048000, 9054000, 9060000, 9066000, 9072000, 9078000, 9084000, 9090000, 9096000, 9102000, 9108000, 9114000, 9120000, 9126000, 9132000, 9138000, 9144000, 9150000, 9156000, 9162000, 9168000, 9174000, 9180000, 9186000, 9192000, 9198000, 9204000, 9210000, 9216000, 9222000, 9228000, 9234000, 9240000, 9246000, 9252000, 9258000, 9264000, 9270000, 9276000, 9282000, 9288000, 9294000, 9300000, 9306000, 9312000, 9318000, 9324000, 9330000, 9336000, 9342000, 9348000, 9354000, 9360000, 9366000, 9372000, 9378000, 9384000, 9390000, 9396000, 9402000, 9408000, 9414000, 9420000, 9426000, 9432000, 9438000, 9444000, 9450000, 9456000, 9462000, 9468000, 9474000, 9480000, 9486000, 9492000, 9498000, 9504000, 9510000, 9516000, 9522000, 9528000, 9534000, 9540000, 9546000, 9552000, 9558000, 9564000, 9570000, 9576000, 9582000, 9588000, 9594000, 9600000, 9606000, 9612000, 9618000, 9624000, 9630000, 9636000, 9642000, 9648000, 9654000, 9660000, 9666000, 9672000, 9678000, 9684000, 9690000, 9696000, 9702000, 9708000, 9714000, 9720000, 9726000, 9732000, 9738000, 9744000, 9750000, 9756000, 9762000, 9768000, 9774000, 9780000, 9786000, 9792000, 9798000, 9804000, 9810000, 9816000, 9822000, 9828000, 9834000, 9840000, 9846000, 9852000, 9858000, 9864000, 9870000, 9876000, 9882000, 9888000, 9894000, 9900000, 9906000, 9912000, 9918000, 9924000, 9930000, 9936000, 9942000, 9948000, 9954000, 9960000, 9966000, 9972000, 9978000, 9984000, 9990000, 9996000, 10002000, 10008000, 10014000, 10020000, 10026000, 10032000, 10038000, 10044000, 10050000, 10056000, 10062000, 10068000, 10074000, 10080000, 10086000, 10092000, 10098000, 10104000, 10110000, 10116000, 10122000, 10128000, 10134000, 10140000, 10146000, 10152000, 10158000, 10164000, 10170000, 10176000, 10182000, 10188000, 10194000, 10200000, 10206000, 10212000, 10218000, 10224000, 10230000, 10236000, 10242000, 10248000, 10254000, 10260000, 10266000, 10272000, 10278000, 10284000, 10290000, 10296000, 10302000, 10308000, 10314000, 10320000, 10326000, 10332000, 10338000, 10344000, 10350000, 10356000, 10362000, 10368000, 10374000, 10380000, 10386000, 10392000, 10398000, 10404000, 10410000, 10416000, 10422000, 10428000, 10434000, 10440000, 10446000, 10452000, 10458000, 10464000, 10470000, 10476000, 10482000, 10488000, 10494000, 10500000, 10506000, 10512000, 10518000, 10524000, 10530000, 10536000, 10542000, 10548000, 10554000, 10560000, 10566000, 10572000, 10578000, 10584000, 10590000, 10596000, 10602000, 10608000, 10614000, 10620000, 10626000, 10632000, 10638000, 10644000, 10650000, 10656000, 10662000, 10668000, 10674000, 10680000, 10686000, 10692000, 10698000, 10704000, 10710000, 10716000, 10722000, 10728000, 10734000, 10740000, 10746000, 10752000, 10758000, 10764000, 10770000, 10776000, 10782000, 10788000, 10794000, 10800000, 10806000, 10812000, 10818000, 10824000, 10830000, 10836000, 10842000, 10848000, 10854000, 10860000, 10866000, 10872000, 10878000, 10884000, 10890000, 10896000, 10902000, 10908000, 10914000, 10920000, 10926000, 10932000, 10938000, 10944000, 10950000, 10956000, 10962000, 10968000, 10974000, 10980000, 10986000, 10992000, 10998000, 11004000, 11010000, 11016000, 11022000, 11028000, 11034000, 11040000, 11046000, 11052000, 11058000, 11064000, 11070000, 11076000, 11082000, 11088000, 11094000, 11100000, 11106000, 11112000, 11118000, 11124000, 11130000, 11136000, 11142000, 11148000, 11154000, 11160000, 11166000, 11172000, 11178000, 11184000, 11190000, 11196000, 11202000, 11208000, 11214000, 11220000, 11226000, 11232000, 11238000, 11244000, 11250000, 11256000, 11262000, 11268000, 11274000, 11280000, 11286000, 11292000, 11298000, 11304000, 11310000, 11316000, 11322000, 11328000, 11334000, 11340000, 11346000, 11352000, 11358000, 11364000, 11370000, 11376000, 11382000, 11388000, 11394000, 11400000, 11406000, 11412000, 11418000, 11424000, 11430000, 11436000, 11442000, 11448000, 11454000, 11460000, 11466000, 11472000, 11478000, 11484000, 11490000, 11496000, 11502000, 11508000, 11514000, 11520000, 11526000, 11532000, 11538000, 11544000, 11550000, 11556000, 11562000, 11568000, 11574000, 11580000, 11586000, 11592000, 11598000, 11604000, 11610000, 11616000, 11622000, 11628000, 11634000, 11640000, 11646000, 11652000, 11658000, 11664000, 11670000, 11676000, 11682000, 11688000, 11694000, 11700000, 11706000, 11712000, 11718000, 11724000, 11730000, 11736000, 11742000, 11748000, 11754000, 11760000, 11766000, 11772000, 11778000, 11784000, 11790000, 11796000, 11802000, 11808000, 11814000, 11820000, 11826000, 11832000, 11838000, 11844000, 11850000, 11856000, 11862000, 11868000, 11874000, 11880000, 11886000, 11892000, 11898000, 11904000, 11910000, 11916000, 11922000, 11928000, 11934000, 11940000, 11946000, 11952000, 11958000, 11964000, 11970000, 11976000, 11982000, 11988000, 11994000, 12000000, 12006000, 12012000, 12018000, 12024000, 12030000, 12036000, 12042000, 12048000, 12054000, 12060000, 12066000, 12072000, 12078000, 12084000, 12090000, 12096000, 12102000, 12108000, 12114000, 12120000, 12126000, 12132000, 12138000, 12144000, 12150000, 12156000, 12162000, 12168000, 12174000, 12180000, 12186000, 12192000, 12198000, 12204000, 12210000, 12216000, 12222000, 12228000, 12234000, 12240000, 12246000, 12252000, 12258000, 12264000, 12270000, 12276000, 12282000, 12288000, 12294000, 12300000, 12306000, 12312000, 12318000, 12324000, 12330000, 12336000, 12342000, 12348000, 12354000, 12360000, 12366000, 12372000, 12378000, 12384000, 12390000, 12396000, 12402000, 12408000, 12414000, 12420000, 12426000, 12432000, 12438000, 12444000, 12450000, 12456000, 12462000, 12468000, 12474000, 12480000, 12486000, 12492000, 12498000, 12504000, 12510000, 12516000, 12522000, 12528000, 12534000, 12540000, 12546000, 12552000, 12558000, 12564000, 12570000, 12576000, 12582000, 12588000, 12594000, 12600000, 12606000, 12612000, 12618000, 12624000, 12630000, 12636000, 12642000, 12648000, 12654000, 12660000, 12666000, 12672000, 12678000, 12684000, 12690000, 12696000, 12702000, 12708000, 12714000, 12720000, 12726000, 12732000, 12738000, 12744000, 12750000, 12756000, 12762000, 12768000, 12774000, 12780000, 12786000, 12792000, 12798000, 12804000, 12810000, 12816000, 12822000, 12828000, 12834000, 12840000, 12846000, 12852000, 12858000, 12864000, 12870000, 12876000, 12882000, 12888000, 12894000, 12900000, 12906000, 12912000, 12918000, 12924000, 12930000, 12936000, 12942000, 12948000, 12954000, 12960000, 12966000, 12972000, 12978000, 12984000, 12990000, 12996000, 13002000, 13008000, 13014000, 13020000, 13026000, 13032000, 13038000, 13044000, 13050000, 13056000, 13062000, 13068000, 13074000, 13080000, 13086000, 13092000, 13098000, 13104000, 13110000, 13116000, 13122000, 13128000, 13134000, 13140000, 13146000, 13152000, 13158000, 13164000, 13170000, 13176000, 13182000, 13188000, 13194000, 13200000, 13206000, 13212000, 13218000, 13224000, 13230000, 13236000, 13242000, 13248000, 13254000, 13260000, 13266000, 13272000, 13278000, 13284000, 13290000, 13296000, 13302000, 13308000, 13314000, 13320000, 13326000, 13332000, 13338000, 13344000, 13350000, 13356000, 13362000, 13368000, 13374000, 13380000, 13386000, 13392000, 13398000, 13404000, 13410000, 13416000, 13422000, 13428000, 13434000, 13440000, 13446000, 13452000, 13458000, 13464000, 13470000, 13476000, 13482000, 13488000, 13494000, 13500000, 13506000, 13512000, 13518000, 13524000, 13530000, 13536000, 13542000, 13548000, 13554000, 13560000, 13566000, 13572000, 13578000, 13584000, 13590000, 13596000, 13602000, 13608000, 13614000, 13620000, 13626000, 13632000, 13638000, 13644000, 13650000, 13656000, 13662000, 13668000, 13674000, 13680000, 13686000, 13692000, 13698000, 13704000, 13710000, 13716000, 13722000, 13728000, 13734000, 13740000, 13746000, 13752000, 13758000, 13764000, 13770000, 13776000, 13782000, 13788000, 13794000, 13800000, 13806000, 13812000, 13818000, 13824000, 13830000, 13836000, 13842000, 13848000, 13854000, 13860000, 13866000, 13872000, 13878000, 13884000, 13890000, 13896000, 13902000, 13908000, 13914000, 13920000, 13926000, 13932000, 13938000, 13944000, 13950000, 13956000, 13962000, 13968000, 13974000, 13980000, 13986000, 13992000, 13998000, 14004000, 14010000, 14016000, 14022000, 14028000, 14034000, 14040000, 14046000, 14052000, 14058000, 14064000, 14070000, 14076000, 14082000, 14088000, 14094000, 14100000, 14106000, 14112000, 14118000, 14124000, 14130000, 14136000, 14142000, 14148000, 14154000, 14160000, 14166000, 14172000, 14178000, 14184000, 14190000, 14196000, 14202000, 14208000, 14214000, 14220000, 14226000, 14232000, 14238000, 14244000, 14250000, 14256000, 14262000, 14268000, 14274000, 14280000, 14286000, 14292000, 14298000, 14304000, 14310000, 14316000, 14322000, 14328000, 14334000, 14340000, 14346000, 14352000, 14358000, 14364000, 14370000, 14376000, 14382000, 14388000, 14394000, 14400000, 14406000, 14412000, 14418000, 14424000, 14430000, 14436000, 14442000, 14448000, 14454000, 14460000, 14466000, 14472000, 14478000, 14484000, 14490000, 14496000, 14502000, 14508000, 14514000, 14520000, 14526000, 14532000, 14538000, 14544000, 14550000, 14556000, 14562000, 14568000, 14574000, 14580000, 14586000, 14592000, 14598000, 14604000, 14610000, 14616000, 14622000, 14628000, 14634000, 14640000, 14646000, 14652000, 14658000, 14664000, 14670000, 14676000, 14682000, 14688000, 14694000, 14700000, 14706000, 14712000, 14718000, 14724000, 14730000, 14736000, 14742000, 14748000, 14754000, 14760000, 14766000, 14772000, 14778000, 14784000, 14790000, 14796000, 14802000, 14808000, 14814000, 14820000, 14826000, 14832000, 14838000, 14844000, 14850000, 14856000, 14862000, 14868000, 14874000, 14880000, 14886000, 14892000, 14898000, 14904000, 14910000, 14916000, 14922000, 14928000, 14934000, 14940000, 14946000, 14952000, 14958000, 14964000, 14970000, 14976000, 14982000, 14988000, 14994000, 15000000, 15006000, 15012000, 15018000, 15024000, 15030000, 15036000, 15042000, 15048000, 15054000, 15060000, 15066000, 15072000, 15078000, 15084000, 15090000, 15096000, 15102000, 15108000, 15114000, 15120000, 15126000, 15132000, 15138000, 15144000, 15150000, 15156000, 15162000, 15168000, 15174000, 15180000, 15186000, 15192000, 15198000, 15204000, 15210000, 15216000, 15222000, 15228000, 15234000, 15240000, 15246000, 15252000, 15258000, 15264000, 15270000, 15276000, 15282000, 15288000, 15294000, 15300000, 15306000, 15312000, 15318000, 15324000, 15330000, 15336000, 15342000, 15348000, 15354000, 15360000, 15366000, 15372000, 15378000, 15384000, 15390000, 15396000, 15402000, 15408000, 15414000, 15420000, 15426000, 15432000, 15438000, 15444000, 15450000, 15456000, 15462000, 15468000, 15474000, 15480000, 15486000, 15492000, 15498000, 15504000, 15510000, 15516000, 15522000, 15528000, 15534000, 15540000, 15546000, 15552000, 15558000, 15564000, 15570000, 15576000, 15582000, 15588000, 15594000, 15600000, 15606000, 15612000, 15618000, 15624000, 15630000, 15636000, 15642000, 15648000, 15654000, 15660000, 15666000, 15672000, 15678000, 15684000, 15690000, 15696000, 15702000, 15708000, 15714000, 15720000, 15726000, 15732000, 15738000, 15744000, 15750000, 15756000, 15762000, 15768000, 15774000, 15780000, 15786000, 15792000, 15798000, 15804000, 15810000, 15816000, 15822000, 15828000, 15834000, 15840000, 15846000, 15852000, 15858000, 15864000, 15870000, 15876000, 15882000, 15888000, 15894000, 15900000, 15906000, 15912000, 15918000, 15924000, 15930000, 15936000, 15942000, 15948000, 15954000, 15960000, 15966000, 15972000, 15978000, 15984000, 15990000, 15996000, 16002000, 16008000, 16014000, 16020000, 16026000, 16032000, 16038000, 16044000, 16050000, 16056000, 16062000, 16068000, 16074000, 16080000, 16086000, 16092000, 16098000, 16104000, 16110000, 16116000, 16122000, 16128000, 16134000, 16140000, 16146000, 16152000, 16158000, 16164000, 16170000, 16176000, 16182000, 16188000, 16194000, 16200000, 16206000, 16212000, 16218000, 16224000, 16230000, 16236000, 16242000, 16248000, 16254000, 16260000, 16266000, 16272000, 16278000, 16284000, 16290000, 16296000, 16302000, 16308000, 16314000, 16320000, 16326000, 16332000, 16338000, 16344000, 16350000, 16356000, 16362000, 16368000, 16374000, 16380000, 16386000, 16392000, 16398000, 16404000, 16410000, 16416000, 16422000, 16428000, 16434000, 16440000, 16446000, 16452000, 16458000, 16464000, 16470000, 16476000, 16482000, 16488000, 16494000, 16500000, 16506000, 16512000, 16518000, 16524000, 16530000, 16536000, 16542000, 16548000, 16554000, 16560000, 16566000, 16572000, 16578000, 16584000, 16590000, 16596000, 16602000, 16608000, 16614000, 16620000, 16626000, 16632000, 16638000, 16644000, 16650000, 16656000, 16662000, 16668000, 16674000, 16680000, 16686000, 16692000, 16698000, 16704000, 16710000, 16716000, 16722000, 16728000, 16734000, 16740000, 16746000, 16752000, 16758000, 16764000, 16770000, 16776000, 16782000, 16788000, 16794000, 16800000, 16806000, 16812000, 16818000, 16824000, 16830000, 16836000, 16842000, 16848000, 16854000, 16860000, 16866000, 16872000, 16878000, 16884000, 16890000, 16896000, 16902000, 16908000, 16914000, 16920000, 16926000, 16932000, 16938000, 16944000, 16950000, 16956000, 16962000, 16968000, 16974000, 16980000, 16986000, 16992000, 16998000, 17004000, 17010000, 17016000, 17022000, 17028000, 17034000, 17040000, 17046000, 17052000, 17058000, 17064000, 17070000, 17076000, 17082000, 17088000, 17094000, 17100000, 17106000, 17112000, 17118000, 17124000, 17130000, 17136000, 17142000, 17148000, 17154000, 17160000, 17166000, 17172000, 17178000, 17184000, 17190000, 17196000, 17202000, 17208000, 17214000, 17220000, 17226000, 17232000, 17238000, 17244000, 17250000, 17256000, 17262000, 17268000, 17274000]"
004,200,30,17340000,2890,"[0, 6000, 12000, 18000, 24000, 30000, 36000, 42000, 48000, 54000, 60000, 66000, 72000, 78000, 84000, 90000, 96000, 102000, 108000, 114000, 120000, 126000, 132000, 138000, 144000, 150000, 156000, 162000, 168000, 174000, 180000, 186000, 192000, 198000, 204000, 210000, 216000, 222000, 228000, 234000, 240000, 246000, 252000, 258000, 264000, 270000, 276000, 282000, 288000, 294000, 300000, 306000, 312000, 318000, 324000, 330000, 336000, 342000, 348000, 354000, 360000, 366000, 372000, 378000, 384000, 390000, 396000, 402000, 408000, 414000, 420000, 426000, 432000, 438000, 444000, 450000, 456000, 462000, 468000, 474000, 480000, 486000, 492000, 498000, 504000, 510000, 516000, 522000, 528000, 534000, 540000, 546000, 552000, 558000, 564000, 570000, 576000, 582000, 588000, 594000, 600000, 606000, 612000, 618000, 624000, 630000, 636000, 642000, 648000, 654000, 660000, 666000, 672000, 678000, 684000, 690000, 696000, 702000, 708000, 714000, 720000, 726000, 732000, 738000, 744000, 750000, 756000, 762000, 768000, 774000, 780000, 786000, 792000, 798000, 804000, 810000, 816000, 822000, 828000, 834000, 840000, 846000, 852000, 858000, 864000, 870000, 876000, 882000, 888000, 894000, 900000, 906000, 912000, 918000, 924000, 930000, 936000, 942000, 948000, 954000, 960000, 966000, 972000, 978000, 984000, 990000, 996000, 1002000, 1008000, 1014000, 1020000, 1026000, 1032000, 1038000, 1044000, 1050000, 1056000, 1062000, 1068000, 1074000, 1080000, 1086000, 1092000, 1098000, 1104000, 1110000, 1116000, 1122000, 1128000, 1134000, 1140000, 1146000, 1152000, 1158000, 1164000, 1170000, 1176000, 1182000, 1188000, 1194000, 1200000, 1206000, 1212000, 1218000, 1224000, 1230000, 1236000, 1242000, 1248000, 1254000, 1260000, 1266000, 1272000, 1278000, 1284000, 1290000, 1296000, 1302000, 1308000, 1314000, 1320000, 1326000, 1332000, 1338000, 1344000, 1350000, 1356000, 1362000, 1368000, 1374000, 1380000, 1386000, 1392000, 1398000, 1404000, 1410000, 1416000, 1422000, 1428000, 1434000, 1440000, 1446000, 1452000, 1458000, 1464000, 1470000, 1476000, 1482000, 1488000, 1494000, 1500000, 1506000, 1512000, 1518000, 1524000, 1530000, 1536000, 1542000, 1548000, 1554000, 1560000, 1566000, 1572000, 1578000, 1584000, 1590000, 1596000, 1602000, 1608000, 1614000, 1620000, 1626000, 1632000, 1638000, 1644000, 1650000, 1656000, 1662000, 1668000, 1674000, 1680000, 1686000, 1692000, 1698000, 1704000, 1710000, 1716000, 1722000, 1728000, 1734000, 1740000, 1746000, 1752000, 1758000, 1764000, 1770000, 1776000, 1782000, 1788000, 1794000, 1800000, 1806000, 1812000, 1818000, 1824000, 1830000, 1836000, 1842000, 1848000, 1854000, 1860000, 1866000, 1872000, 1878000, 1884000, 1890000, 1896000, 1902000, 1908000, 1914000, 1920000, 1926000, 1932000, 1938000, 1944000, 1950000, 1956000, 1962000, 1968000, 1974000, 1980000, 1986000, 1992000, 1998000, 2004000, 2010000, 2016000, 2022000, 2028000, 2034000, 2040000, 2046000, 2052000, 2058000, 2064000, 2070000, 2076000, 2082000, 2088000, 2094000, 2100000, 2106000, 2112000, 2118000, 2124000, 2130000, 2136000, 2142000, 2148000, 2154000, 2160000, 2166000, 2172000, 2178000, 2184000, 2190000, 2196000, 2202000, 2208000, 2214000, 2220000, 2226000, 2232000, 2238000, 2244000, 2250000, 2256000, 2262000, 2268000, 2274000, 2280000, 2286000, 2292000, 2298000, 2304000, 2310000, 2316000, 2322000, 2328000, 2334000, 2340000, 2346000, 2352000, 2358000, 2364000, 2370000, 2376000, 2382000, 2388000, 2394000, 2400000, 2406000, 2412000, 2418000, 2424000, 2430000, 2436000, 2442000, 2448000, 2454000, 2460000, 2466000, 2472000, 2478000, 2484000, 2490000, 2496000, 2502000, 2508000, 2514000, 2520000, 2526000, 2532000, 2538000, 2544000, 2550000, 2556000, 2562000, 2568000, 2574000, 2580000, 2586000, 2592000, 2598000, 2604000, 2610000, 2616000, 2622000, 2628000, 2634000, 2640000, 2646000, 2652000, 2658000, 2664000, 2670000, 2676000, 2682000, 2688000, 2694000, 2700000, 2706000, 2712000, 2718000, 2724000, 2730000, 2736000, 2742000, 2748000, 2754000, 2760000, 2766000, 2772000, 2778000, 2784000, 2790000, 2796000, 2802000, 2808000, 2814000, 2820000, 2826000, 2832000, 2838000, 2844000, 2850000, 2856000, 2862000, 2868000, 2874000, 2880000, 2886000, 2892000, 2898000, 2904000, 2910000, 2916000, 2922000, 2928000, 2934000, 2940000, 2946000, 2952000, 2958000, 2964000, 2970000, 2976000, 2982000, 2988000, 2994000, 3000000, 3006000, 3012000, 3018000, 3024000, 3030000, 3036000, 3042000, 3048000, 3054000, 3060000, 3066000, 3072000, 3078000, 3084000, 3090000, 3096000, 3102000, 3108000, 3114000, 3120000, 3126000, 3132000, 3138000, 3144000, 3150000, 3156000, 3162000, 3168000, 3174000, 3180000, 3186000, 3192000, 3198000, 3204000, 3210000, 3216000, 3222000, 3228000, 3234000, 3240000, 3246000, 3252000, 3258000, 3264000, 3270000, 3276000, 3282000, 3288000, 3294000, 3300000, 3306000, 3312000, 3318000, 3324000, 3330000, 3336000, 3342000, 3348000, 3354000, 3360000, 3366000, 3372000, 3378000, 3384000, 3390000, 3396000, 3402000, 3408000, 3414000, 3420000, 3426000, 3432000, 3438000, 3444000, 3450000, 3456000, 3462000, 3468000, 3474000, 3480000, 3486000, 3492000, 3498000, 3504000, 3510000, 3516000, 3522000, 3528000, 3534000, 3540000, 3546000, 3552000, 3558000, 3564000, 3570000, 3576000, 3582000, 3588000, 3594000, 3600000, 3606000, 3612000, 3618000, 3624000, 3630000, 3636000, 3642000, 3648000, 3654000, 3660000, 3666000, 3672000, 3678000, 3684000, 3690000, 3696000, 3702000, 3708000, 3714000, 3720000, 3726000, 3732000, 3738000, 3744000, 3750000, 3756000, 3762000, 3768000, 3774000, 3780000, 3786000, 3792000, 3798000, 3804000, 3810000, 3816000, 3822000, 3828000, 3834000, 3840000, 3846000, 3852000, 3858000, 3864000, 3870000, 3876000, 3882000, 3888000, 3894000, 3900000, 3906000, 3912000, 3918000, 3924000, 3930000, 3936000, 3942000, 3948000, 3954000, 3960000, 3966000, 3972000, 3978000, 3984000, 3990000, 3996000, 4002000, 4008000, 4014000, 4020000, 4026000, 4032000, 4038000, 4044000, 4050000, 4056000, 4062000, 4068000, 4074000, 4080000, 4086000, 4092000, 4098000, 4104000, 4110000, 4116000, 4122000, 4128000, 4134000, 4140000, 4146000, 4152000, 4158000, 4164000, 4170000, 4176000, 4182000, 4188000, 4194000, 4200000, 4206000, 4212000, 4218000, 4224000, 4230000, 4236000, 4242000, 4248000, 4254000, 4260000, 4266000, 4272000, 4278000, 4284000, 4290000, 4296000, 4302000, 4308000, 4314000, 4320000, 4326000, 4332000, 4338000, 4344000, 4350000, 4356000, 4362000, 4368000, 4374000, 4380000, 4386000, 4392000, 4398000, 4404000, 4410000, 4416000, 4422000, 4428000, 4434000, 4440000, 4446000, 4452000, 4458000, 4464000, 4470000, 4476000, 4482000, 4488000, 4494000, 4500000, 4506000, 4512000, 4518000, 4524000, 4530000, 4536000, 4542000, 4548000, 4554000, 4560000, 4566000, 4572000, 4578000, 4584000, 4590000, 4596000, 4602000, 4608000, 4614000, 4620000, 4626000, 4632000, 4638000, 4644000, 4650000, 4656000, 4662000, 4668000, 4674000, 4680000, 4686000, 4692000, 4698000, 4704000, 4710000, 4716000, 4722000, 4728000, 4734000, 4740000, 4746000, 4752000, 4758000, 4764000, 4770000, 4776000, 4782000, 4788000, 4794000, 4800000, 4806000, 4812000, 4818000, 4824000, 4830000, 4836000, 4842000, 4848000, 4854000, 4860000, 4866000, 4872000, 4878000, 4884000, 4890000, 4896000, 4902000, 4908000, 4914000, 4920000, 4926000, 4932000, 4938000, 4944000, 4950000, 4956000, 4962000, 4968000, 4974000, 4980000, 4986000, 4992000, 4998000, 5004000, 5010000, 5016000, 5022000, 5028000, 5034000, 5040000, 5046000, 5052000, 5058000, 5064000, 5070000, 5076000, 5082000, 5088000, 5094000, 5100000, 5106000, 5112000, 5118000, 5124000, 5130000, 5136000, 5142000, 5148000, 5154000, 5160000, 5166000, 5172000, 5178000, 5184000, 5190000, 5196000, 5202000, 5208000, 5214000, 5220000, 5226000, 5232000, 5238000, 5244000, 5250000, 5256000, 5262000, 5268000, 5274000, 5280000, 5286000, 5292000, 5298000, 5304000, 5310000, 5316000, 5322000, 5328000, 5334000, 5340000, 5346000, 5352000, 5358000, 5364000, 5370000, 5376000, 5382000, 5388000, 5394000, 5400000, 5406000, 5412000, 5418000, 5424000, 5430000, 5436000, 5442000, 5448000, 5454000, 5460000, 5466000, 5472000, 5478000, 5484000, 5490000, 5496000, 5502000, 5508000, 5514000, 5520000, 5526000, 5532000, 5538000, 5544000, 5550000, 5556000, 5562000, 5568000, 5574000, 5580000, 5586000, 5592000, 5598000, 5604000, 5610000, 5616000, 5622000, 5628000, 5634000, 5640000, 5646000, 5652000, 5658000, 5664000, 5670000, 5676000, 5682000, 5688000, 5694000, 5700000, 5706000, 5712000, 5718000, 5724000, 5730000, 5736000, 5742000, 5748000, 5754000, 5760000, 5766000, 5772000, 5778000, 5784000, 5790000, 5796000, 5802000, 5808000, 5814000, 5820000, 5826000, 5832000, 5838000, 5844000, 5850000, 5856000, 5862000, 5868000, 5874000, 5880000, 5886000, 5892000, 5898000, 5904000, 5910000, 5916000, 5922000, 5928000, 5934000, 5940000, 5946000, 5952000, 5958000, 5964000, 5970000, 5976000, 5982000, 5988000, 5994000, 6000000, 6006000, 6012000, 6018000, 6024000, 6030000, 6036000, 6042000, 6048000, 6054000, 6060000, 6066000, 6072000, 6078000, 6084000, 6090000, 6096000, 6102000, 6108000, 6114000, 6120000, 6126000, 6132000, 6138000, 6144000, 6150000, 6156000, 6162000, 6168000, 6174000, 6180000, 6186000, 6192000, 6198000, 6204000, 6210000, 6216000, 6222000, 6228000, 6234000, 6240000, 6246000, 6252000, 6258000, 6264000, 6270000, 6276000, 6282000, 6288000, 6294000, 6300000, 6306000, 6312000, 6318000, 6324000, 6330000, 6336000, 6342000, 6348000, 6354000, 6360000, 6366000, 6372000, 6378000, 6384000, 6390000, 6396000, 6402000, 6408000, 6414000, 6420000, 6426000, 6432000, 6438000, 6444000, 6450000, 6456000, 6462000, 6468000, 6474000, 6480000, 6486000, 6492000, 6498000, 6504000, 6510000, 6516000, 6522000, 6528000, 6534000, 6540000, 6546000, 6552000, 6558000, 6564000, 6570000, 6576000, 6582000, 6588000, 6594000, 6600000, 6606000, 6612000, 6618000, 6624000, 6630000, 6636000, 6642000, 6648000, 6654000, 6660000, 6666000, 6672000, 6678000, 6684000, 6690000, 6696000, 6702000, 6708000, 6714000, 6720000, 6726000, 6732000, 6738000, 6744000, 6750000, 6756000, 6762000, 6768000, 6774000, 6780000, 6786000, 6792000, 6798000, 6804000, 6810000, 6816000, 6822000, 6828000, 6834000, 6840000, 6846000, 6852000, 6858000, 6864000, 6870000, 6876000, 6882000, 6888000, 6894000, 6900000, 6906000, 6912000, 6918000, 6924000, 6930000, 6936000, 6942000, 6948000, 6954000, 6960000, 6966000, 6972000, 6978000, 6984000, 6990000, 6996000, 7002000, 7008000, 7014000, 7020000, 7026000, 7032000, 7038000, 7044000, 7050000, 7056000, 7062000, 7068000, 7074000, 7080000, 7086000, 7092000, 7098000, 7104000, 7110000, 7116000, 7122000, 7128000, 7134000, 7140000, 7146000, 7152000, 7158000, 7164000, 7170000, 7176000, 7182000, 7188000, 7194000, 7200000, 7206000, 7212000, 7218000, 7224000, 7230000, 7236000, 7242000, 7248000, 7254000, 7260000, 7266000, 7272000, 7278000, 7284000, 7290000, 7296000, 7302000, 7308000, 7314000, 7320000, 7326000, 7332000, 7338000, 7344000, 7350000, 7356000, 7362000, 7368000, 7374000, 7380000, 7386000, 7392000, 7398000, 7404000, 7410000, 7416000, 7422000, 7428000, 7434000, 7440000, 7446000, 7452000, 7458000, 7464000, 7470000, 7476000, 7482000, 7488000, 7494000, 7500000, 7506000, 7512000, 7518000, 7524000, 7530000, 7536000, 7542000, 7548000, 7554000, 7560000, 7566000, 7572000, 7578000, 7584000, 7590000, 7596000, 7602000, 7608000, 7614000, 7620000, 7626000, 7632000, 7638000, 7644000, 7650000, 7656000, 7662000, 7668000, 7674000, 7680000, 7686000, 7692000, 7698000, 7704000, 7710000, 7716000, 7722000, 7728000, 7734000, 7740000, 7746000, 7752000, 7758000, 7764000, 7770000, 7776000, 7782000, 7788000, 7794000, 7800000, 7806000, 7812000, 7818000, 7824000, 7830000, 7836000, 7842000, 7848000, 7854000, 7860000, 7866000, 7872000, 7878000, 7884000, 7890000, 7896000, 7902000, 7908000, 7914000, 7920000, 7926000, 7932000, 7938000, 7944000, 7950000, 7956000, 7962000, 7968000, 7974000, 7980000, 7986000, 7992000, 7998000, 8004000, 8010000, 8016000, 8022000, 8028000, 8034000, 8040000, 8046000, 8052000, 8058000, 8064000, 8070000, 8076000, 8082000, 8088000, 8094000, 8100000, 8106000, 8112000, 8118000, 8124000, 8130000, 8136000, 8142000, 8148000, 8154000, 8160000, 8166000, 8172000, 8178000, 8184000, 8190000, 8196000, 8202000, 8208000, 8214000, 8220000, 8226000, 8232000, 8238000, 8244000, 8250000, 8256000, 8262000, 8268000, 8274000, 8280000, 8286000, 8292000, 8298000, 8304000, 8310000, 8316000, 8322000, 8328000, 8334000, 8340000, 8346000, 8352000, 8358000, 8364000, 8370000, 8376000, 8382000, 8388000, 8394000, 8400000, 8406000, 8412000, 8418000, 8424000, 8430000, 8436000, 8442000, 8448000, 8454000, 8460000, 8466000, 8472000, 8478000, 8484000, 8490000, 8496000, 8502000, 8508000, 8514000, 8520000, 8526000, 8532000, 8538000, 8544000, 8550000, 8556000, 8562000, 8568000, 8574000, 8580000, 8586000, 8592000, 8598000, 8604000, 8610000, 8616000, 8622000, 8628000, 8634000, 8640000, 8646000, 8652000, 8658000, 8664000, 8670000, 8676000, 8682000, 8688000, 8694000, 8700000, 8706000, 8712000, 8718000, 8724000, 8730000, 8736000, 8742000, 8748000, 8754000, 8760000, 8766000, 8772000, 8778000, 8784000, 8790000, 8796000, 8802000, 8808000, 8814000, 8820000, 8826000, 8832000, 8838000, 8844000, 8850000, 8856000, 8862000, 8868000, 8874000, 8880000, 8886000, 8892000, 8898000, 8904000, 8910000, 8916000, 8922000, 8928000, 8934000, 8940000, 8946000, 8952000, 8958000, 8964000, 8970000, 8976000, 8982000, 8988000, 8994000, 9000000, 9006000, 9012000, 9018000, 9024000, 9030000, 9036000, 9042000, 9048000, 9054000, 9060000, 9066000, 9072000, 9078000, 9084000, 9090000, 9096000, 9102000, 9108000, 9114000, 9120000, 9126000, 9132000, 9138000, 9144000, 9150000, 9156000, 9162000, 9168000, 9174000, 9180000, 9186000, 9192000, 9198000, 9204000, 9210000, 9216000, 9222000, 9228000, 9234000, 9240000, 9246000, 9252000, 9258000, 9264000, 9270000, 9276000, 9282000, 9288000, 9294000, 9300000, 9306000, 9312000, 9318000, 9324000, 9330000, 9336000, 9342000, 9348000, 9354000, 9360000, 9366000, 9372000, 9378000, 9384000, 9390000, 9396000, 9402000, 9408000, 9414000, 9420000, 9426000, 9432000, 9438000, 9444000, 9450000, 9456000, 9462000, 9468000, 9474000, 9480000, 9486000, 9492000, 9498000, 9504000, 9510000, 9516000, 9522000, 9528000, 9534000, 9540000, 9546000, 9552000, 9558000, 9564000, 9570000, 9576000, 9582000, 9588000, 9594000, 9600000, 9606000, 9612000, 9618000, 9624000, 9630000, 9636000, 9642000, 9648000, 9654000, 9660000, 9666000, 9672000, 9678000, 9684000, 9690000, 9696000, 9702000, 9708000, 9714000, 9720000, 9726000, 9732000, 9738000, 9744000, 9750000, 9756000, 9762000, 9768000, 9774000, 9780000, 9786000, 9792000, 9798000, 9804000, 9810000, 9816000, 9822000, 9828000, 9834000, 9840000, 9846000, 9852000, 9858000, 9864000, 9870000, 9876000, 9882000, 9888000, 9894000, 9900000, 9906000, 9912000, 9918000, 9924000, 9930000, 9936000, 9942000, 9948000, 9954000, 9960000, 9966000, 9972000, 9978000, 9984000, 9990000, 9996000, 10002000, 10008000, 10014000, 10020000, 10026000, 10032000, 10038000, 10044000, 10050000, 10056000, 10062000, 10068000, 10074000, 10080000, 10086000, 10092000, 10098000, 10104000, 10110000, 10116000, 10122000, 10128000, 10134000, 10140000, 10146000, 10152000, 10158000, 10164000, 10170000, 10176000, 10182000, 10188000, 10194000, 10200000, 10206000, 10212000, 10218000, 10224000, 10230000, 10236000, 10242000, 10248000, 10254000, 10260000, 10266000, 10272000, 10278000, 10284000, 10290000, 10296000, 10302000, 10308000, 10314000, 10320000, 10326000, 10332000, 10338000, 10344000, 10350000, 10356000, 10362000, 10368000, 10374000, 10380000, 10386000, 10392000, 10398000, 10404000, 10410000, 10416000, 10422000, 10428000, 10434000, 10440000, 10446000, 10452000, 10458000, 10464000, 10470000, 10476000, 10482000, 10488000, 10494000, 10500000, 10506000, 10512000, 10518000, 10524000, 10530000, 10536000, 10542000, 10548000, 10554000, 10560000, 10566000, 10572000, 10578000, 10584000, 10590000, 10596000, 10602000, 10608000, 10614000, 10620000, 10626000, 10632000, 10638000, 10644000, 10650000, 10656000, 10662000, 10668000, 10674000, 10680000, 10686000, 10692000, 10698000, 10704000, 10710000, 10716000, 10722000, 10728000, 10734000, 10740000, 10746000, 10752000, 10758000, 10764000, 10770000, 10776000, 10782000, 10788000, 10794000, 10800000, 10806000, 10812000, 10818000, 10824000, 10830000, 10836000, 10842000, 10848000, 10854000, 10860000, 10866000, 10872000, 10878000, 10884000, 10890000, 10896000, 10902000, 10908000, 10914000, 10920000, 10926000, 10932000, 10938000, 10944000, 10950000, 10956000, 10962000, 10968000, 10974000, 10980000, 10986000, 10992000, 10998000, 11004000, 11010000, 11016000, 11022000, 11028000, 11034000, 11040000, 11046000, 11052000, 11058000, 11064000, 11070000, 11076000, 11082000, 11088000, 11094000, 11100000, 11106000, 11112000, 11118000, 11124000, 11130000, 11136000, 11142000, 11148000, 11154000, 11160000, 11166000, 11172000, 11178000, 11184000, 11190000, 11196000, 11202000, 11208000, 11214000, 11220000, 11226000, 11232000, 11238000, 11244000, 11250000, 11256000, 11262000, 11268000, 11274000, 11280000, 11286000, 11292000, 11298000, 11304000, 11310000, 11316000, 11322000, 11328000, 11334000, 11340000, 11346000, 11352000, 11358000, 11364000, 11370000, 11376000, 11382000, 11388000, 11394000, 11400000, 11406000, 11412000, 11418000, 11424000, 11430000, 11436000, 11442000, 11448000, 11454000, 11460000, 11466000, 11472000, 11478000, 11484000, 11490000, 11496000, 11502000, 11508000, 11514000, 11520000, 11526000, 11532000, 11538000, 11544000, 11550000, 11556000, 11562000, 11568000, 11574000, 11580000, 11586000, 11592000, 11598000, 11604000, 11610000, 11616000, 11622000, 11628000, 11634000, 11640000, 11646000, 11652000, 11658000, 11664000, 11670000, 11676000, 11682000, 11688000, 11694000, 11700000, 11706000, 11712000, 11718000, 11724000, 11730000, 11736000, 11742000, 11748000, 11754000, 11760000, 11766000, 11772000, 11778000, 11784000, 11790000, 11796000, 11802000, 11808000, 11814000, 11820000, 11826000, 11832000, 11838000, 11844000, 11850000, 11856000, 11862000, 11868000, 11874000, 11880000, 11886000, 11892000, 11898000, 11904000, 11910000, 11916000, 11922000, 11928000, 11934000, 11940000, 11946000, 11952000, 11958000, 11964000, 11970000, 11976000, 11982000, 11988000, 11994000, 12000000, 12006000, 12012000, 12018000, 12024000, 12030000, 12036000, 12042000, 12048000, 12054000, 12060000, 12066000, 12072000, 12078000, 12084000, 12090000, 12096000, 12102000, 12108000, 12114000, 12120000, 12126000, 12132000, 12138000, 12144000, 12150000, 12156000, 12162000, 12168000, 12174000, 12180000, 12186000, 12192000, 12198000, 12204000, 12210000, 12216000, 12222000, 12228000, 12234000, 12240000, 12246000, 12252000, 12258000, 12264000, 12270000, 12276000, 12282000, 12288000, 12294000, 12300000, 12306000, 12312000, 12318000, 12324000, 12330000, 12336000, 12342000, 12348000, 12354000, 12360000, 12366000, 12372000, 12378000, 12384000, 12390000, 12396000, 12402000, 12408000, 12414000, 12420000, 12426000, 12432000, 12438000, 12444000, 12450000, 12456000, 12462000, 12468000, 12474000, 12480000, 12486000, 12492000, 12498000, 12504000, 12510000, 12516000, 12522000, 12528000, 12534000, 12540000, 12546000, 12552000, 12558000, 12564000, 12570000, 12576000, 12582000, 12588000, 12594000, 12600000, 12606000, 12612000, 12618000, 12624000, 12630000, 12636000, 12642000, 12648000, 12654000, 12660000, 12666000, 12672000, 12678000, 12684000, 12690000, 12696000, 12702000, 12708000, 12714000, 12720000, 12726000, 12732000, 12738000, 12744000, 12750000, 12756000, 12762000, 12768000, 12774000, 12780000, 12786000, 12792000, 12798000, 12804000, 12810000, 12816000, 12822000, 12828000, 12834000, 12840000, 12846000, 12852000, 12858000, 12864000, 12870000, 12876000, 12882000, 12888000, 12894000, 12900000, 12906000, 12912000, 12918000, 12924000, 12930000, 12936000, 12942000, 12948000, 12954000, 12960000, 12966000, 12972000, 12978000, 12984000, 12990000, 12996000, 13002000, 13008000, 13014000, 13020000, 13026000, 13032000, 13038000, 13044000, 13050000, 13056000, 13062000, 13068000, 13074000, 13080000, 13086000, 13092000, 13098000, 13104000, 13110000, 13116000, 13122000, 13128000, 13134000, 13140000, 13146000, 13152000, 13158000, 13164000, 13170000, 13176000, 13182000, 13188000, 13194000, 13200000, 13206000, 13212000, 13218000, 13224000, 13230000, 13236000, 13242000, 13248000, 13254000, 13260000, 13266000, 13272000, 13278000, 13284000, 13290000, 13296000, 13302000, 13308000, 13314000, 13320000, 13326000, 13332000, 13338000, 13344000, 13350000, 13356000, 13362000, 13368000, 13374000, 13380000, 13386000, 13392000, 13398000, 13404000, 13410000, 13416000, 13422000, 13428000, 13434000, 13440000, 13446000, 13452000, 13458000, 13464000, 13470000, 13476000, 13482000, 13488000, 13494000, 13500000, 13506000, 13512000, 13518000, 13524000, 13530000, 13536000, 13542000, 13548000, 13554000, 13560000, 13566000, 13572000, 13578000, 13584000, 13590000, 13596000, 13602000, 13608000, 13614000, 13620000, 13626000, 13632000, 13638000, 13644000, 13650000, 13656000, 13662000, 13668000, 13674000, 13680000, 13686000, 13692000, 13698000, 13704000, 13710000, 13716000, 13722000, 13728000, 13734000, 13740000, 13746000, 13752000, 13758000, 13764000, 13770000, 13776000, 13782000, 13788000, 13794000, 13800000, 13806000, 13812000, 13818000, 13824000, 13830000, 13836000, 13842000, 13848000, 13854000, 13860000, 13866000, 13872000, 13878000, 13884000, 13890000, 13896000, 13902000, 13908000, 13914000, 13920000, 13926000, 13932000, 13938000, 13944000, 13950000, 13956000, 13962000, 13968000, 13974000, 13980000, 13986000, 13992000, 13998000, 14004000, 14010000, 14016000, 14022000, 14028000, 14034000, 14040000, 14046000, 14052000, 14058000, 14064000, 14070000, 14076000, 14082000, 14088000, 14094000, 14100000, 14106000, 14112000, 14118000, 14124000, 14130000, 14136000, 14142000, 14148000, 14154000, 14160000, 14166000, 14172000, 14178000, 14184000, 14190000, 14196000, 14202000, 14208000, 14214000, 14220000, 14226000, 14232000, 14238000, 14244000, 14250000, 14256000, 14262000, 14268000, 14274000, 14280000, 14286000, 14292000, 14298000, 14304000, 14310000, 14316000, 14322000, 14328000, 14334000, 14340000, 14346000, 14352000, 14358000, 14364000, 14370000, 14376000, 14382000, 14388000, 14394000, 14400000, 14406000, 14412000, 14418000, 14424000, 14430000, 14436000, 14442000, 14448000, 14454000, 14460000, 14466000, 14472000, 14478000, 14484000, 14490000, 14496000, 14502000, 14508000, 14514000, 14520000, 14526000, 14532000, 14538000, 14544000, 14550000, 14556000, 14562000, 14568000, 14574000, 14580000, 14586000, 14592000, 14598000, 14604000, 14610000, 14616000, 14622000, 14628000, 14634000, 14640000, 14646000, 14652000, 14658000, 14664000, 14670000, 14676000, 14682000, 14688000, 14694000, 14700000, 14706000, 14712000, 14718000, 14724000, 14730000, 14736000, 14742000, 14748000, 14754000, 14760000, 14766000, 14772000, 14778000, 14784000, 14790000, 14796000, 14802000, 14808000, 14814000, 14820000, 14826000, 14832000, 14838000, 14844000, 14850000, 14856000, 14862000, 14868000, 14874000, 14880000, 14886000, 14892000, 14898000, 14904000, 14910000, 14916000, 14922000, 14928000, 14934000, 14940000, 14946000, 14952000, 14958000, 14964000, 14970000, 14976000, 14982000, 14988000, 14994000, 15000000, 15006000, 15012000, 15018000, 15024000, 15030000, 15036000, 15042000, 15048000, 15054000, 15060000, 15066000, 15072000, 15078000, 15084000, 15090000, 15096000, 15102000, 15108000, 15114000, 15120000, 15126000, 15132000, 15138000, 15144000, 15150000, 15156000, 15162000, 15168000, 15174000, 15180000, 15186000, 15192000, 15198000, 15204000, 15210000, 15216000, 15222000, 15228000, 15234000, 15240000, 15246000, 15252000, 15258000, 15264000, 15270000, 15276000, 15282000, 15288000, 15294000, 15300000, 15306000, 15312000, 15318000, 15324000, 15330000, 15336000, 15342000, 15348000, 15354000, 15360000, 15366000, 15372000, 15378000, 15384000, 15390000, 15396000, 15402000, 15408000, 15414000, 15420000, 15426000, 15432000, 15438000, 15444000, 15450000, 15456000, 15462000, 15468000, 15474000, 15480000, 15486000, 15492000, 15498000, 15504000, 15510000, 15516000, 15522000, 15528000, 15534000, 15540000, 15546000, 15552000, 15558000, 15564000, 15570000, 15576000, 15582000, 15588000, 15594000, 15600000, 15606000, 15612000, 15618000, 15624000, 15630000, 15636000, 15642000, 15648000, 15654000, 15660000, 15666000, 15672000, 15678000, 15684000, 15690000, 15696000, 15702000, 15708000, 15714000, 15720000, 15726000, 15732000, 15738000, 15744000, 15750000, 15756000, 15762000, 15768000, 15774000, 15780000, 15786000, 15792000, 15798000, 15804000, 15810000, 15816000, 15822000, 15828000, 15834000, 15840000, 15846000, 15852000, 15858000, 15864000, 15870000, 15876000, 15882000, 15888000, 15894000, 15900000, 15906000, 15912000, 15918000, 15924000, 15930000, 15936000, 15942000, 15948000, 15954000, 15960000, 15966000, 15972000, 15978000, 15984000, 15990000, 15996000, 16002000, 16008000, 16014000, 16020000, 16026000, 16032000, 16038000, 16044000, 16050000, 16056000, 16062000, 16068000, 16074000, 16080000, 16086000, 16092000, 16098000, 16104000, 16110000, 16116000, 16122000, 16128000, 16134000, 16140000, 16146000, 16152000, 16158000, 16164000, 16170000, 16176000, 16182000, 16188000, 16194000, 16200000, 16206000, 16212000, 16218000, 16224000, 16230000, 16236000, 16242000, 16248000, 16254000, 16260000, 16266000, 16272000, 16278000, 16284000, 16290000, 16296000, 16302000, 16308000, 16314000, 16320000, 16326000, 16332000, 16338000, 16344000, 16350000, 16356000, 16362000, 16368000, 16374000, 16380000, 16386000, 16392000, 16398000, 16404000, 16410000, 16416000, 16422000, 16428000, 16434000, 16440000, 16446000, 16452000, 16458000, 16464000, 16470000, 16476000, 16482000, 16488000, 16494000, 16500000, 16506000, 16512000, 16518000, 16524000, 16530000, 16536000, 16542000, 16548000, 16554000, 16560000, 16566000, 16572000, 16578000, 16584000, 16590000, 16596000, 16602000, 16608000, 16614000, 16620000, 16626000, 16632000, 16638000, 16644000, 16650000, 16656000, 16662000, 16668000, 16674000, 16680000, 16686000, 16692000, 16698000, 16704000, 16710000, 16716000, 16722000, 16728000, 16734000, 16740000, 16746000, 16752000, 16758000, 16764000, 16770000, 16776000, 16782000, 16788000, 16794000, 16800000, 16806000, 16812000, 16818000, 16824000, 16830000, 16836000, 16842000, 16848000, 16854000, 16860000, 16866000, 16872000, 16878000, 16884000, 16890000, 16896000, 16902000, 16908000, 16914000, 16920000, 16926000, 16932000, 16938000, 16944000, 16950000, 16956000, 16962000, 16968000, 16974000, 16980000, 16986000, 16992000, 16998000, 17004000, 17010000, 17016000, 17022000, 17028000, 17034000, 17040000, 17046000, 17052000, 17058000, 17064000, 17070000, 17076000, 17082000, 17088000, 17094000, 17100000, 17106000, 17112000, 17118000, 17124000, 17130000, 17136000, 17142000, 17148000, 17154000, 17160000, 17166000, 17172000, 17178000, 17184000, 17190000, 17196000, 17202000, 17208000, 17214000, 17220000, 17226000, 17232000, 17238000, 17244000, 17250000, 17256000, 17262000, 17268000, 17274000, 17280000, 17286000, 17292000, 17298000, 17304000, 17310000, 17316000, 17322000, 17328000, 17334000]"
